,BIT_DEPTH,cost
0,370.07,10000.0
1,373.08,0.0
2,374.07,0.0
3,374.76,0.0
4,376.8,0.0
5,377.03,0.0
6,378.71,0.0
7,379.2,0.0
8,380.87,0.0
9,381.07,0.0
10,382.51,0.0
11,383.24,0.0
12,384.69,0.0
13,385.03,0.0
14,386.57,0.0
15,387.09,0.0
16,388.62,0.0
17,389.08,0.0
18,390.69,0.0
19,391.06,0.0
20,392.55,0.0
21,393.23,0.0
22,394.58,0.0
23,395.18,0.0
24,397.16,0.0
25,398.52,0.0
26,399.18,0.0
27,400.65,0.0
28,401.15,0.0
29,402.58,0.0
30,403.07,0.0
31,404.71,0.0
32,405.27,0.0
33,406.71,0.0
34,408.385,0.0
35,409.12,0.0
36,410.2,0.0
37,410.91,0.0
38,412.66,0.0
39,413.01,0.0
40,414.51,0.0
41,415.06,0.0
42,416.57,0.0
43,417.17,0.0
44,418.7,0.0
45,419.2,0.0
46,420.5,0.0
47,421.24,0.0
48,422.83,0.0
49,423.09,0.0
50,424.66,0.0
51,425.04,0.0
52,427.23,0.0
53,429.19,0.0
54,430.58,0.0
55,432.63,0.0
56,433.3,0.0
57,434.69,0.0
58,436.86,0.0
59,438.78,0.0
60,441.0,0.0
61,442.94,0.0
62,443.1,0.0
63,444.78,0.0
64,445.05,0.0
65,447.32,0.0
66,448.59,0.0
67,449.33,0.0
68,450.5,0.0
69,452.72,0.0
70,454.11,0.0
71,454.78,0.0
72,457.04,0.0
73,458.54,0.0
74,460.74,0.0
75,461.32,0.0
76,467.39,0.0
77,468.58,0.0
78,469.05,0.0
79,470.59,0.0
80,471.26,0.0
81,472.56,0.0
82,473.04,0.0
83,474.58,0.0
84,475.46,0.0
85,476.7,0.0
86,477.02,0.0
87,478.6,0.0
88,480.53,0.0
89,483.01,0.0
90,485.01,0.0
91,486.64,0.0
92,487.2,0.0
93,488.74,0.0
94,489.06,0.0
95,490.55,0.0
96,491.1,0.0
97,492.64,0.0
98,493.27,0.0
99,494.85,0.0
100,495.4,0.0
101,496.5,0.0
102,498.61,0.0
103,500.86,0.0
104,501.03,0.0
105,502.71,0.0
106,504.66,0.0
107,505.03,0.0
108,506.72,0.0
109,507.06,0.0
110,508.35,0.0
111,510.63,0.0
112,511.27,0.0
113,512.67,0.0
114,514.64,0.0
115,515.0,0.0
116,516.58,0.0
117,519.12,0.0
118,520.77,0.0
119,521.08,0.0
120,523.16,0.0
121,524.64,0.0
122,525.11,0.0
123,526.69,0.0
124,527.05,0.0
125,528.51,0.0
126,529.06,0.0
127,530.66,0.0
128,532.52,0.0
129,533.19,0.0
130,534.33,0.0
131,536.55,0.0
132,537.17,0.0
133,538.5,0.0
134,542.87,0.0
135,543.03,0.0
136,544.59,0.0
137,545.19,0.0
138,546.25,0.0
139,547.22,0.0
140,548.63,0.0
141,549.17,0.0
142,550.53,0.0
143,551.01,0.0
144,552.58,0.0
145,553.26,0.0
146,554.83,0.0
147,555.14,0.0
148,556.51,0.0
149,557.3,0.0
150,558.27,0.0
151,559.09,0.0
152,560.59,0.0
153,561.1,0.0
154,562.87,0.0
155,563.17,0.0
156,564.52,0.0
157,565.17,0.0
158,566.69,0.0
159,567.33,0.0
160,568.82,0.0
161,569.08,0.0
162,570.51,0.0
163,571.23,0.0
164,572.6,0.0
165,573.4,0.0
166,574.56,0.0
167,575.16,0.0
168,576.57,0.0
169,577.24,0.0
170,578.64,0.0
171,579.16,0.0
172,580.55,0.0
173,581.2,0.0
174,582.74,0.0
175,583.04,0.0
176,584.8,0.0
177,585.06,0.0
178,586.51,0.0
179,587.22,0.0
180,588.62,0.0
181,589.04,0.0
182,590.6,0.0
183,591.12,0.0
184,592.53,0.0
185,593.12,0.0
186,594.51,0.0
187,595.04,0.0
188,596.64,0.0
189,597.0,0.0
190,598.89,0.0
191,599.09,0.0
192,600.52,0.0
193,601.17,0.0
194,602.64,0.0
195,603.0,0.0
196,604.65,0.0
197,605.09,0.0
198,623.03,0.0
199,624.92,0.0
200,625.18,0.0
201,634.56,0.0
202,635.11,0.0
203,636.61,0.0
204,637.0,0.0
205,638.62,0.0
206,639.05,0.0
207,642.55,0.0
208,643.03,0.0
209,644.58,0.0
210,645.02,0.0
211,646.51,0.0
212,647.13,0.0
213,648.16,0.0
214,649.06,0.0
215,650.77,0.0
216,651.33,0.0
217,652.51,0.0
218,653.08,0.0
219,654.55,0.0
220,656.51,0.0
221,658.7,0.0
222,659.06,0.0
223,659.58,0.0
224,661.56,0.0
225,664.04,0.0
226,665.15,0.0
227,666.54,0.0
228,667.08,0.0
229,668.62,0.0
230,669.0,0.0
231,670.56,0.0
232,672.68,0.0
233,673.03,0.0
234,674.59,0.0
235,676.51,0.0
236,678.87,0.0
237,680.355,0.0
238,680.5867,0.0
239,682.295,0.0
240,683.09,0.0
241,684.56,0.0
242,685.16,0.0
243,686.56,0.0
244,687.1,0.0
245,688.52,0.0
246,689.07,0.0
247,690.6,0.0
248,691.13,0.0
249,692.68,0.0
250,693.08,0.0
251,694.63,0.0
252,695.0,0.0
253,696.6,0.0
254,698.51,0.0
255,699.14,0.0
256,700.67,0.0
257,701.06,0.0
258,702.1,0.0
259,703.24,0.0
260,704.5,0.0
261,707.09,0.0
262,708.05,0.0
263,709.1,0.0
264,710.52,0.0
265,711.02,0.0
266,712.56,0.0
267,713.16,0.0
268,714.71,0.0
269,716.13,0.0
270,718.59,0.0
271,720.52,0.0
272,721.31,0.0
273,722.68,0.0
274,723.25,0.0
275,724.36,0.0
276,725.14,0.0
277,726.03,0.0
278,727.2,0.0
279,728.05,0.0
280,729.03,0.0
281,730.67,0.0
282,731.03,0.0
283,732.02,0.0
284,734.58,0.0
285,735.1,0.0
286,736.53,0.0
287,737.06,0.0
288,738.59,0.0
289,739.0,0.0
290,740.57,0.0
291,741.0,0.0
292,742.6,0.0
293,744.64,0.0
294,745.14,0.0
295,746.52,0.0
296,747.11,0.0
297,748.66,0.0
298,749.13,0.0
299,750.01,0.0
300,752.52,0.0
301,753.0,0.0
302,754.65,0.0
303,755.01,0.0
304,757.03,0.0
305,757.55,0.0
306,759.02,0.0
307,759.54,0.0
308,762.18,0.0
309,764.74,0.0
310,766.58,0.0
311,768.02,0.0
312,769.03,0.0
313,770.5,0.0
314,771.04,0.0
315,772.64,0.0
316,774.11,0.0
317,775.19,0.0
318,776.54,0.0
319,777.11,0.0
320,778.04,0.0
321,779.05,0.0
322,780.07,0.0
323,782.58,0.0
324,783.09,0.0
325,784.6,0.0
326,786.6,0.0
327,787.12,0.0
328,788.56,0.0
329,789.15,0.0
330,790.82,0.0
331,791.08,0.0
332,792.77,0.0
333,793.2,0.0
334,794.61,0.0
335,795.04,0.0
336,796.65,0.0
337,797.26,0.0
338,798.5,0.0
339,799.19,0.0
340,800.71,0.0
341,801.32,0.0
342,802.6,0.0
343,803.07,0.0
344,804.8,0.0
345,805.18,0.0
346,806.56,0.0
347,807.08,0.0
348,808.82,0.0
349,809.05,0.0
350,810.97,0.0
351,811.23,0.0
352,812.72,0.0
353,813.26,0.0
354,814.83,0.0
355,815.18,0.0
356,816.58,0.0
357,817.2,0.0
358,818.7,0.0
359,819.21,0.0
360,820.71,0.0
361,821.13,0.0
362,822.62,0.0
363,823.4,0.0
364,824.55,0.0
365,825.14,0.0
366,826.5,0.0
367,828.67,0.0
368,829.19,0.0
369,830.78,0.0
370,832.01,0.0
371,833.11,0.0
372,834.52,0.0
373,835.1,0.0
374,836.6,0.0
375,838.5,0.0
376,839.22,0.0
377,840.51,0.0
378,841.14,0.0
379,842.76,0.0
380,843.15,0.0
381,844.95,0.0
382,845.2,0.0
383,846.69,0.0
384,848.75,0.0
385,850.04,0.0
386,851.25,0.0
387,852.51,0.0
388,853.22,0.0
389,854.5,0.0
390,855.02,0.0
391,856.69,0.0
392,858.51,0.0
393,859.14,0.0
394,860.17,0.0
395,861.03,0.0
396,862.7,0.0
397,863.12,0.0
398,863.68,0.0
399,866.81,0.0
400,867.06,0.0
401,868.59,0.0
402,869.06,0.0
403,870.12,0.0
404,871.48,0.0
405,872.82,0.0
406,873.42,0.0
407,874.68,0.0
408,875.02,0.0
409,876.6,0.0
410,877.33,0.0
411,878.69,0.0
412,879.06,0.0
413,880.56,0.0
414,881.15,0.0
415,882.74,0.0
416,883.58,0.0
417,885.09,0.0
418,886.94,0.0
419,887.06,0.0
420,888.38,0.0
421,890.01,0.0
422,891.11,0.0
423,891.64,0.0
424,894.6,0.0
425,895.08,0.0
426,896.52,0.0
427,897.07,0.0
428,898.61,0.0
429,901.04,0.0
430,905.15,0.0
431,906.54,0.0
432,907.17,0.0
433,908.67,0.0
434,909.36,0.0
435,910.51,0.0
436,911.19,0.0
437,912.72,0.0
438,913.13,0.0
439,914.71,0.0
440,915.05,0.0
441,917.06,0.0
442,918.18,0.0
443,920.55,0.0
444,922.39,0.0
445,923.1,0.0
446,924.53,0.0
447,925.25,0.0
448,926.59,0.0
449,928.13,0.0
450,929.2,0.0
451,929.6,0.0
452,931.28,0.0
453,932.64,0.0
454,933.21,0.0
455,934.78,0.0
456,936.27,0.0
457,937.09,0.0
458,938.29,0.0
459,939.4,0.0
460,940.91,0.0
461,942.53,0.0
462,944.74,0.0
463,946.53,0.0
464,947.12,0.0
465,948.29,0.0
466,949.15,0.0
467,950.53,0.0
468,952.51,0.0
469,953.19,0.0
470,954.74,0.0
471,955.01,0.0
472,956.81,0.0
473,957.06,0.0
474,957.54,0.0
475,960.53,0.0
476,961.11,0.0
477,962.91,0.0
478,964.61,0.0
479,966.53,0.0
480,968.8,0.0
481,970.78,0.0
482,971.11,0.0
483,972.62,0.0
484,973.13,0.0
485,974.53,0.0
486,976.33,0.0
487,976.91,0.0
488,978.86,0.0
489,979.12,0.0
490,980.61,0.0
491,981.03,0.0
492,982.26,0.0
493,983.09,0.0
494,984.64,0.0
495,986.74,0.0
496,987.0,0.0
497,988.67,0.0
498,990.27,0.0
499,991.2,0.0
500,992.66,0.0
501,993.02,0.0
502,994.67,0.0
503,995.11,0.0
504,996.46,0.0
505,998.98,0.0
506,1000.33,0.0
507,1001.0,0.0
508,1002.71,0.0
509,1003.29,0.0
510,1004.06,0.0
511,1005.45,0.0
512,1005.89,0.0
513,1008.0,0.0
514,1009.04,0.0
515,1010.23,0.0
516,1011.19,0.0
517,1012.62,0.0
518,1013.16,0.0
519,1014.5,0.0
520,1016.58,0.0
521,1018.59,0.0
522,1019.15,0.0
523,1020.78,0.0
524,1022.59,0.0
525,1023.26,0.0
526,1024.4,0.0
527,1026.59,0.0
528,1027.11,0.0
529,1028.51,0.0
530,1030.13,0.0
531,1031.03,0.0
532,1032.37,0.0
533,1033.01,0.0
534,1034.67,0.0
535,1035.2,0.0
536,1036.64,0.0
537,1038.01,0.0
538,1038.75,0.0
539,1040.43,0.0
540,1041.03,0.0
541,1042.52,0.0
542,1043.0,0.0
543,1044.5,0.0
544,1045.04,0.0
545,1046.53,0.0
546,1048.51,0.0
547,1049.0,0.0
548,1050.51,0.0
549,1051.0,0.0
550,1052.51,0.0
551,1053.0,0.0
552,1054.59,0.0
553,1055.03,0.0
554,1056.6,0.0
555,1057.04,0.0
556,1058.51,0.0
557,1060.51,0.0
558,1062.5,0.0
559,1064.5,0.0
560,1065.02,0.0
561,1066.59,0.0
562,1067.06,0.0
563,1068.57,0.0
564,1069.01,0.0
565,1070.58,0.0
566,1071.08,0.0
567,1072.74,0.0
568,1073.1,0.0
569,1074.91,0.0
570,1075.22,0.0
571,1076.91,0.0
572,1077.08,0.0
573,1078.61,0.0
574,1079.02,0.0
575,1080.74,0.0
576,1082.55,0.0
577,1083.29,0.0
578,1084.51,0.0
579,1085.12,0.0
580,1086.57,0.0
581,1087.0,0.0
582,1088.5,0.0
583,1089.08,0.0
584,1090.53,0.0
585,1091.05,0.0
586,1092.58,0.0
587,1093.06,0.0
588,1094.52,0.0
589,1095.1,0.0
590,1096.55,0.0
591,1097.02,0.0
592,1098.62,0.0
593,1099.23,0.0
594,1100.71,0.0
595,1101.07,0.0
596,1102.62,0.0
597,1103.02,0.0
598,1104.55,0.0
599,1105.08,0.0
600,1106.58,0.0
601,1108.1,0.0
602,1109.2,0.0
603,1110.72,0.0
604,1111.19,0.0
605,1112.64,0.0
606,1113.11,0.0
607,1114.06,0.0
608,1115.02,0.0
609,1116.0,0.0
610,1117.01,0.0
611,1118.5,0.0
612,1119.09,0.0
613,1120.04,0.0
614,1121.05,0.0
615,1122.04,0.0
616,1123.09,0.0
617,1124.51,0.0
618,1125.02,0.0
619,1126.53,0.0
620,1128.54,0.0
621,1129.0,0.0
622,1130.56,0.0
623,1131.06,0.0
624,1132.03,0.0
625,1133.0,0.0
626,1133.53,0.0
627,1135.01,0.0
628,1136.51,0.0
629,1137.0,0.0
630,1138.54,0.0
631,1139.04,0.0
632,1140.53,0.0
633,1141.02,0.0
634,1142.56,0.0
635,1143.03,0.0
636,1144.05,0.0
637,1145.03,0.0
638,1146.06,0.0
639,1147.04,0.0
640,1148.02,0.0
641,1150.04,0.0
642,1152.55,0.0
643,1153.0,0.0
644,1154.54,0.0
645,1155.04,0.0
646,1156.53,0.0
647,1157.01,0.0
648,1158.53,0.0
649,1159.11,0.0
650,1160.06,0.0
651,1161.07,0.0
652,1162.51,0.0
653,1163.09,0.0
654,1164.57,0.0
655,1165.01,0.0
656,1165.57,0.0
657,1168.59,0.0
658,1169.06,0.0
659,1170.61,0.0
660,1172.5,0.0
661,1174.78,0.0
662,1175.04,0.0
663,1176.6,0.0
664,1180.53,0.0
665,1184.25,0.0
666,1185.18,0.0
667,1186.5,0.0
668,1187.03,0.0
669,1188.5,0.0
670,1190.54,0.0
671,1191.03,0.0
672,1194.51,0.0
673,1195.0,0.0
674,1196.02,0.0
675,1197.03,0.0
676,1198.55,0.0
677,1200.03,0.0
678,1204.64,0.0
679,1205.0,0.0
680,1206.5,0.0
681,1207.23,0.0
682,1208.5,0.0
683,1209.08,0.0
684,1210.66,0.0
685,1211.17,0.0
686,1212.73,0.0
687,1213.11,0.0
688,1214.73,0.0
689,1216.68,0.0
690,1217.09,0.0
691,1218.67,0.0
692,1219.09,0.0
693,1220.82,0.0
694,1221.08,0.0
695,1222.53,0.0
696,1223.23,0.0
697,1224.16,0.0
698,1225.08,0.0
699,1226.66,0.0
700,1228.66,0.0
701,1229.22,0.0
702,1230.54,0.0
703,1231.05,0.0
704,1231.67,0.0
705,1233.0,0.0
706,1234.65,0.0
707,1236.19,0.0
708,1237.05,0.0
709,1238.57,0.0
710,1239.13,0.0
711,1240.62,0.0
712,1241.01,0.0
713,1242.54,0.0
714,1244.54,0.0
715,1245.03,0.0
716,1246.61,0.0
717,1247.12,0.0
718,1248.68,0.0
719,1249.04,0.0
720,1250.52,0.0
721,1251.02,0.0
722,1252.1,0.0
723,1253.17,0.0
724,1254.71,0.0
725,1256.07,0.0
726,1257.06,0.0
727,1258.22,0.0
728,1259.19,0.0
729,1259.6,0.0
730,1261.22,0.0
731,1262.51,0.0
732,1263.15,0.0
733,1264.62,0.0
734,1265.19,0.0
735,1266.63,0.0
736,1267.36,0.0
737,1267.55,0.0
738,1269.33,0.0
739,1270.78,0.0
740,1272.14,0.0
741,1273.07,0.0
742,1274.67,0.0
743,1275.15,0.0
744,1276.67,0.0
745,1277.08,0.0
746,1278.58,0.0
747,1280.25,0.0
748,1281.05,0.0
749,1282.71,0.0
750,1283.64,0.0
751,1285.38,0.0
752,1286.57,0.0
753,1287.18,0.0
754,1288.19,0.0
755,1289.15,0.0
756,1290.66,0.0
757,1291.17,0.0
758,1292.5,0.0
759,1293.12,0.0
760,1294.35,0.0
761,1295.24,0.0
762,1296.65,0.0
763,1297.29,0.0
764,1298.52,0.0
765,1299.49,0.0
766,1300.66,0.0
767,1302.66,0.0
768,1304.5,0.0
769,1305.23,0.0
770,1306.75,0.0
771,1308.86,0.0
772,1309.11,0.0
773,1310.56,0.0
774,1311.02,0.0
775,1311.72,0.0
776,1314.24,0.0
777,1315.1,0.0
778,1316.22,0.0
779,1316.93,0.0
780,1318.17,0.0
781,1318.87,0.0
782,1320.97,0.0
783,1321.12,0.0
784,1321.78,0.0
785,1323.27,0.0
786,1323.88,0.0
787,1325.35,0.0
788,1326.71,0.0
789,1327.19,0.0
790,1328.25,0.0
791,1329.09,0.0
792,1330.5,0.0
793,1331.26,0.0
794,1333.02,0.0
795,1334.61,0.0
796,1336.73,0.0
797,1337.0,0.0
798,1338.74,0.0
799,1339.1,0.0
800,1340.55,0.0
801,1341.2,0.0
802,1342.14,0.0
803,1343.56,0.0
804,1345.02,0.0
805,1346.09,0.0
806,1348.54,0.0
807,1349.08,0.0
808,1350.03,0.0
809,1351.0,0.0
810,1351.31,0.0
811,1355.06,0.0
812,1355.6,0.0
813,1358.53,0.0
814,1360.81,0.0
815,1361.09,0.0
816,1362.62,0.0
817,1362.8,0.0
818,1364.7,0.0
819,1365.22,0.0
820,1366.07,0.0
821,1366.77,0.0
822,1368.54,0.0
823,1370.73,0.0
824,1371.2,0.0
825,1372.65,0.0
826,1374.09,0.0
827,1376.09,0.0
828,1377.29,0.0
829,1378.71,0.0
830,1380.06,0.0
831,1381.95,0.0
832,1383.19,0.0
833,1384.86,0.0
834,1385.28,0.0
835,1387.3,0.0
836,1387.99,0.0
837,1390.13,0.0
838,1392.57,0.0
839,1394.23,0.0
840,1396.06,0.0
841,1397.03,0.0
842,1398.52,0.0
843,1399.04,0.0
844,1400.26,0.0
845,1402.51,0.0
846,1405.0,-0.0
847,1404.56,0.0
848,1405.01,0.0
849,1406.51,0.0
850,1407.07,0.0
851,1407.86,0.0
852,1411.07,-0.0
853,1410.61,0.0
854,1414.06,0.0
855,1416.53,0.0
856,1417.05,0.0
857,1418.75,0.0
858,1419.06,0.0
859,1420.52,0.0
860,1420.97,0.0
861,1421.97,0.0
862,1423.24,0.0
863,1424.62,0.0
864,1425.34,0.0
865,1425.44,0.0
866,1428.37,0.0
867,1430.08,0.0
868,1432.27,0.0
869,1433.17,0.0
870,1433.31,0.0
871,1435.73,0.0
872,1438.72,0.0
873,1439.28,0.0
874,1440.64,0.0
875,1441.06,0.0
876,1441.28,0.0
877,1443.05,0.0
878,1444.74,0.0
879,1445.03,0.0
880,1446.73,0.0
881,1447.08,0.0
882,1452.7,0.0
883,1453.3,0.0
884,1454.57,0.0
885,1455.0,0.0
886,1457.13,0.0
887,1458.52,0.0
888,1459.18,0.0
889,1460.64,0.0
890,1461.22,0.0
891,1462.56,0.0
892,1464.16,0.0
893,1465.01,0.0
894,1466.64,0.0
895,1467.13,0.0
896,1468.02,0.0
897,1469.19,0.0
898,1470.69,0.0
899,1471.08,0.0
900,1472.53,0.0
901,1473.14,0.0
902,1474.55,0.0
903,1476.54,0.0
904,1477.06,0.0
905,1478.12,0.0
906,1479.19,0.0
907,1480.61,0.0
908,1481.05,0.0
909,1482.74,0.0
910,1483.12,0.0
911,1483.67,0.0
912,1485.05,0.0
913,1486.68,0.0
914,1487.06,0.0
915,1488.64,0.0
916,1490.56,0.0
917,1491.06,0.0
918,1492.79,0.0
919,1493.13,0.0
920,1494.67,0.0
921,1495.03,0.0
922,1496.55,0.0
923,1497.09,0.0
924,1498.66,0.0
925,1499.0,0.0
926,1500.59,0.0
927,1501.02,0.0
928,1502.38,0.0
929,1503.1,0.0
930,1504.82,0.0
931,1505.03,0.0
932,1506.55,0.0
933,1507.03,0.0
934,1508.07,0.0
935,1509.01,0.0
936,1510.68,0.0
937,1511.12,0.0
938,1512.81,0.0
939,1513.19,0.0
940,1514.1,0.0
941,1516.01,0.0
942,1517.01,0.0
943,1518.62,0.0
944,1519.09,0.0
945,1520.16,0.0
946,1521.07,0.0
947,1522.5,0.0
948,1523.18,0.0
949,1524.73,0.0
950,1525.0,0.0
951,1526.54,0.0
952,1527.02,0.0
953,1528.64,0.0
954,1529.03,0.0
955,1530.64,0.0
956,1532.68,0.0
957,1533.0,0.0
958,1534.38,0.0
959,1535.03,0.0
960,1536.52,0.0
961,1537.16,0.0
962,1538.68,0.0
963,1539.1,0.0
964,1540.6,0.0
965,1542.65,0.0
966,1543.03,0.0
967,1544.51,0.0
968,1545.07,0.0
969,1546.52,0.0
970,1547.29,0.0
971,1548.51,0.0
972,1549.0,0.0
973,1550.55,0.0
974,1551.0,0.0
975,1552.54,0.0
976,1553.05,0.0
977,1554.8,0.0
978,1555.05,0.0
979,1556.69,0.0
980,1558.66,0.0
981,1560.04,0.0
982,1561.09,0.0
983,1562.54,0.0
984,1563.12,0.0
985,1564.63,0.0
986,1565.08,0.0
987,1566.57,0.0
988,1567.09,0.0
989,1570.54,0.0
990,1571.02,0.0
991,1572.54,0.0
992,1573.06,0.0
993,1574.56,0.0
994,1575.08,0.0
995,1576.51,0.0
996,1577.0,0.0
997,1578.51,0.0
998,1579.02,0.0
999,1580.5,0.0
1000,1582.54,0.0
1001,1583.01,0.0
1002,1584.52,0.0
1003,1585.03,0.0
1004,1586.54,0.0
1005,1587.07,0.0
1006,1588.6,0.0
1007,1590.51,0.0
1008,1591.01,0.0
1009,1592.53,0.0
1010,1594.5,0.0
1011,1595.11,0.0
1012,1596.61,0.0
1013,1598.51,0.0
1014,1599.19,0.0
1015,1600.61,0.0
1016,1601.24,0.0
1017,1602.56,0.0
1018,1603.05,0.0
1019,1604.54,0.0
1020,1605.21,0.0
1021,1606.08,0.0
1022,1607.24,0.0
1023,1608.74,0.0
1024,1609.02,0.0
1025,1610.69,0.0
1026,1612.27,0.0
1027,1614.86,0.0
1028,1616.7,0.0
1029,1617.07,0.0
1030,1618.19,0.0
1031,1618.77,0.0
1032,1620.12,0.0
1033,1622.6,0.0
1034,1623.08,0.0
1035,1624.22,0.0
1036,1625.16,0.0
1037,1626.68,0.0
1038,1627.11,0.0
1039,1628.99,0.0
1040,1630.55,0.0
1041,1631.19,0.0
1042,1632.63,0.0
1043,1633.05,0.0
1044,1634.73,0.0
1045,1636.07,0.0
1046,1638.44,0.0
1047,1639.25,0.0
1048,1640.15,0.0
1049,1640.75,0.0
1050,1642.86,0.0
1051,1643.0,0.0
1052,1644.66,0.0
1053,1645.36,0.0
1054,1645.68,0.0
1055,1647.15,0.0
1056,1648.7,0.0
1057,1650.28,0.0
1058,1651.13,0.0
1059,1652.69,0.0
1060,1654.59,0.0
1061,1656.53,0.0
1062,1657.14,0.0
1063,1658.76,0.0
1064,1659.11,0.0
1065,1660.62,0.0
1066,1661.06,0.0
1067,1661.78,0.0
1068,1665.0,0.0
1069,1666.29,0.0
1070,1667.13,0.0
1071,1668.82,0.0
1072,1670.51,0.0
1073,1671.11,0.0
1074,1671.74,0.0
1075,1673.04,0.0
1076,1674.62,0.0
1077,1676.6,0.0
1078,1678.55,0.0
1079,1679.7,0.0
1080,1681.99,0.0
1081,1683.08,0.0
1082,1684.24,0.0
1083,1684.75,0.0
1084,1685.62,0.0
1085,1687.06,0.0
1086,1688.6,0.0
1087,1690.88,0.0
1088,1691.07,0.0
1089,1692.5,0.0
1090,1693.04,0.0
1091,1694.15,0.0
1092,1695.13,0.0
1093,1696.78,0.0
1094,1698.92,0.0
1095,1699.1,0.0
1096,1700.39,0.0
1097,1701.01,0.0
1098,1702.08,0.0
1099,1702.97,0.0
1100,1704.21,0.0
1101,1705.39,0.0
1102,1705.59,0.0
1103,1707.23,0.0
1104,1708.02,0.0
1105,1709.39,0.0
1106,1710.86,0.0
1107,1712.87,0.0
1108,1713.04,0.0
1109,1714.7,0.0
1110,1715.11,0.0
1111,1716.54,0.0
1112,1717.06,0.0
1113,1718.03,0.0
1114,1719.06,0.0
1115,1720.01,0.0
1116,1721.19,0.0
1117,1722.75,0.0
1118,1723.19,0.0
1119,1724.01,0.0
1120,1725.06,0.0
1121,1726.52,0.0
1122,1727.02,0.0
1123,1728.53,0.0
1124,1730.59,0.0
1125,1731.0,0.0
1126,1732.04,0.0
1127,1733.05,0.0
1128,1734.59,0.0
1129,1736.16,0.0
1130,1737.06,0.0
1131,1738.56,0.0
1132,1739.39,0.0
1133,1740.59,0.0
1134,1742.11,0.0
1135,1743.0,0.0
1136,1744.72,0.0
1137,1745.1,0.0
1138,1746.93,0.0
1139,1747.07,0.0
1140,1748.74,0.0
1141,1750.23,0.0
1142,1751.09,0.0
1143,1752.6,0.0
1144,1753.01,0.0
1145,1754.79,0.0
1146,1756.6,0.0
1147,1758.35,0.0
1148,1759.22,0.0
1149,1760.75,0.0
1150,1761.26,0.0
1151,1762.23,0.0
1152,1762.75,0.0
1153,1764.14,0.0
1154,1765.06,0.0
1155,1766.52,0.0
1156,1768.71,0.0
1157,1769.02,0.0
1158,1770.53,0.0
1159,1771.31,0.0
1160,1772.72,0.0
1161,1773.02,0.0
1162,1774.72,0.0
1163,1775.19,0.0
1164,1775.5,0.0
1165,1778.57,0.0
1166,1779.33,0.0
1167,1780.83,0.0
1168,1782.65,0.0
1169,1784.62,0.0
1170,1785.06,0.0
1171,1786.11,0.0
1172,1787.59,0.0
1173,1789.15,0.0
1174,1790.57,0.0
1175,1791.18,0.0
1176,1792.71,0.0
1177,1793.42,0.0
1178,1794.54,0.0
1179,1795.06,0.0
1180,1796.59,0.0
1181,1798.5,0.0
1182,1799.2,0.0
1183,1799.86,0.0
1184,1801.01,0.0
1185,1802.29,0.0
1186,1804.14,0.0
1187,1805.01,0.0
1188,1806.04,0.0
1189,1806.76,0.0
1190,1808.71,0.0
1191,1810.26,0.0
1192,1811.37,0.0
1193,1813.07,0.0
1194,1814.0,0.0
1195,1816.61,0.0
1196,1818.61,0.0
1197,1820.69,0.0
1198,1821.37,0.0
1199,1822.25,0.0
1200,1823.07,0.0
1201,1823.79,0.0
1202,1825.04,0.0
1203,1825.82,0.0
1204,1827.04,0.0
1205,1828.15,0.0
1206,1829.31,0.0
1207,1830.79,0.0
1208,1832.54,0.0
1209,1833.24,0.0
1210,1834.04,0.0
1211,1835.03,0.0
1212,1836.34,0.0
1213,1837.06,0.0
1214,1837.89,0.0
1215,1839.24,0.0
1216,1840.66,0.0
1217,1842.35,0.0
1218,1846.87,0.0
1219,1847.05,0.0
1220,1848.01,0.0
1221,1848.92,0.0
1222,1850.18,0.0
1223,1851.15,0.0
1224,1852.64,0.0
1225,1853.36,0.0
1226,1854.59,0.0
1227,1855.05,0.0
1228,1857.16,0.0
1229,1858.53,0.0
1230,1860.55,0.0
1231,1861.18,0.0
1232,1862.16,0.0
1233,1863.2,0.0
1234,1864.71,0.0
1235,1865.13,0.0
1236,1866.59,0.0
1237,1868.59,0.0
1238,1869.12,0.0
1239,1870.62,0.0
1240,1874.64,0.0
1241,1876.95,0.0
1242,1877.46,0.0
1243,1878.78,0.0
1244,1880.62,0.0
1245,1881.13,0.0
1246,1882.51,0.0
1247,1883.02,0.0
1248,1884.72,0.0
1249,1885.15,0.0
1250,1886.01,0.0
1251,1887.0,0.0
1252,1888.05,0.0
1253,1889.07,0.0
1254,1890.03,0.0
1255,1891.09,0.0
1256,1891.55,0.0
1257,1893.05,0.0
1258,1893.56,0.0
1259,1895.1,0.0
1260,1896.62,0.0
1261,1897.2,0.0
1262,1898.06,0.0
1263,1899.2,0.0
1264,1900.58,0.0
1265,1901.19,0.0
1266,1902.93,0.0
1267,1903.05,0.0
1268,1904.01,0.0
1269,1906.66,0.0
1270,1907.03,0.0
1271,1908.59,0.0
1272,1909.08,0.0
1273,1910.27,0.0
1274,1911.02,0.0
1275,1912.65,0.0
1276,1913.05,0.0
1277,1914.53,0.0
1278,1915.15,0.0
1279,1916.58,0.0
1280,1917.32,0.0
1281,1918.6,0.0
1282,1919.09,0.0
1283,1920.73,0.0
1284,1922.21,0.0
1285,1924.66,0.0
1286,1926.54,0.0
1287,1927.45,0.0
1288,1928.26,0.0
1289,1929.11,0.0
1290,1930.82,0.0
1291,1931.13,0.0
1292,1932.01,0.0
1293,1933.18,0.0
1294,1934.27,0.0
1295,1936.64,0.0
1296,1937.59,0.0
1297,1938.71,0.0
1298,1939.15,0.0
1299,1940.68,0.0
1300,1941.53,0.0
1301,1943.16,0.0
1302,1944.59,0.0
1303,1945.09,0.0
1304,1946.0,0.0
1305,1947.13,0.0
1306,1948.77,0.0
1307,1950.28,0.0
1308,1950.75,0.0
1309,1954.26,0.0
1310,1956.51,0.0
1311,1958.72,0.0
1312,1959.42,0.0
1313,1960.02,0.0
1314,1960.89,0.0
1315,1962.81,0.0
1316,1963.0,0.0
1317,1964.71,0.0
1318,1965.05,0.0
1319,1966.82,0.0
1320,1967.02,0.0
1321,1968.65,0.0
1322,1969.39,0.0
1323,1970.4,0.0
1324,1971.1,0.0
1325,1974.82,0.0
1326,1975.18,0.0
1327,1975.52,0.0
1328,1978.71,0.0
1329,1979.29,0.0
1330,1980.79,0.0
1331,1982.66,0.0
1332,1983.06,0.0
1333,1984.62,0.0
1334,1984.77,0.0
1335,1986.76,0.0
1336,1988.41,0.0
1337,1989.1,0.0
1338,1990.51,0.0
1339,1991.03,0.0
1340,1992.21,0.0
1341,1994.62,0.0
1342,1996.23,0.0
1343,1997.09,0.0
1344,1998.64,0.0
1345,2000.63,0.0
1346,2001.4,0.0
1347,2002.63,0.0
1348,2004.63,0.0
1349,2006.23,0.0
1350,2007.08,0.0
1351,2008.6,0.0
1352,2009.12,0.0
1353,2010.09,0.0
1354,2014.73,0.0
1355,2016.59,0.0
1356,2017.18,0.0
1357,2018.73,0.0
1358,2020.79,0.0
1359,2022.65,0.0
1360,2023.15,0.0
1361,2024.89,0.0
1362,2026.62,0.0
1363,2028.61,0.0
1364,2030.55,0.0
1365,2031.16,0.0
1366,2032.67,0.0
1367,2034.34,0.0
1368,2035.15,0.0
1369,2036.53,0.0
1370,2038.07,0.0
1371,2038.84,0.0
1372,2040.8,0.0
1373,2041.06,0.0
1374,2042.67,0.0
1375,2044.57,0.0
1376,2046.55,0.0
1377,2047.09,0.0
1378,2048.09,0.0
1379,2048.78,0.0
1380,2049.79,0.0
1381,2051.11,0.0
1382,2052.23,0.0
1383,2054.5,0.0
1384,2055.04,0.0
1385,2056.57,0.0
1386,2057.44,0.0
1387,2058.57,0.0
1388,2059.16,0.0
1389,2060.69,0.0
1390,2061.2,0.0
1391,2062.61,0.0
1392,2063.22,0.0
1393,2064.76,0.0
1394,2065.38,0.0
1395,2066.73,0.0
1396,2067.17,0.0
1397,2068.19,0.0
1398,2069.17,0.0
1399,2070.7,0.0
1400,2071.09,0.0
1401,2072.76,0.0
1402,2073.13,0.0
1403,2074.61,0.0
1404,2076.56,0.0
1405,2078.64,0.0
1406,2079.1,0.0
1407,2080.27,0.0
1408,2081.09,0.0
1409,2082.74,0.0
1410,2083.27,0.0
1411,2084.04,0.0
1412,2085.13,0.0
1413,2086.71,0.0
1414,2087.01,0.0
1415,2088.66,0.0
1416,2089.01,0.0
1417,2090.67,0.0
1418,2091.23,0.0
1419,2092.26,0.0
1420,2093.19,0.0
1421,2094.81,0.0
1422,2095.21,0.0
1423,2096.5,0.0
1424,2097.24,0.0
1425,2098.53,0.0
1426,2099.36,0.0
1427,2100.85,0.0
1428,2102.58,0.0
1429,2104.74,0.0
1430,2105.03,0.0
1431,2106.09,0.0
1432,2106.88,0.0
1433,2108.25,0.0
1434,2109.14,0.0
1435,2111.04,0.0
1436,2111.19,0.0
1437,2112.64,0.0
1438,2113.36,0.0
1439,2114.07,0.0
1440,2115.34,0.0
1441,2116.55,0.0
1442,2117.01,0.0
1443,2118.59,0.0
1444,2120.5,0.0
1445,2121.22,0.0
1446,2122.69,0.0
1447,2123.25,0.0
1448,2124.81,0.0
1449,2126.72,0.0
1450,2127.05,0.0
1451,2128.62,0.0
1452,2129.35,0.0
1453,2130.31,0.0
1454,2131.1,0.0
1455,2132.5,0.0
1456,2134.88,0.0
1457,2135.1,0.0
1458,2136.66,0.0
1459,2138.27,0.0
1460,2139.12,0.0
1461,2140.6,0.0
1462,2142.81,0.0
1463,2144.63,0.0
1464,2146.11,0.0
1465,2146.75,0.0
1466,2148.62,0.0
1467,2149.26,0.0
1468,2150.04,0.0
1469,2152.64,0.0
1470,2153.24,0.0
1471,2154.34,0.0
1472,2155.11,0.0
1473,2156.51,0.0
1474,2157.11,0.0
1475,2158.68,0.0
1476,2159.12,0.0
1477,2159.51,0.0
1478,2161.14,0.0
1479,2162.59,0.0
1480,2164.03,0.0
1481,2165.15,0.0
1482,2166.54,0.0
1483,2167.06,0.0
1484,2168.63,0.0
1485,2169.53,0.0
1486,2171.11,0.0
1487,2172.66,0.0
1488,2173.0,0.0
1489,2174.68,0.0
1490,2175.09,0.0
1491,2176.53,0.0
1492,2177.28,0.0
1493,2178.5,0.0
1494,2179.04,0.0
1495,2180.25,0.0
1496,2181.02,0.0
1497,2182.24,0.0
1498,2183.09,0.0
1499,2184.51,0.0
1500,2185.07,0.0
1501,2186.29,0.0
1502,2188.5,0.0
1503,2189.24,0.0
1504,2190.61,0.0
1505,2191.33,0.0
1506,2192.53,0.0
1507,2193.13,0.0
1508,2194.81,0.0
1509,2195.07,0.0
1510,2196.64,0.0
1511,2197.3,0.0
1512,2198.65,0.0
1513,2199.06,0.0
1514,2199.73,0.0
1515,2202.72,0.0
1516,2203.11,0.0
1517,2204.68,0.0
1518,2205.05,0.0
1519,2206.52,0.0
1520,2207.45,0.0
1521,2208.64,0.0
1522,2209.07,0.0
1523,2210.51,0.0
1524,2212.35,0.0
1525,2213.02,0.0
1526,2214.74,0.0
1527,2215.32,0.0
1528,2216.84,0.0
1529,2217.08,0.0
1530,2219.19,0.0
1531,2219.63,0.0
1532,2221.24,0.0
1533,2222.1,0.0
1534,2223.21,0.0
1535,2224.92,0.0
1536,2225.05,0.0
1537,2226.92,0.0
1538,2227.06,0.0
1539,2228.57,0.0
1540,2229.1,0.0
1541,2230.56,0.0
1542,2231.05,0.0
1543,2232.07,0.0
1544,2234.55,0.0
1545,2235.07,0.0
1546,2236.58,0.0
1547,2238.6,0.0
1548,2240.56,0.0
1549,2241.05,0.0
1550,2242.52,0.0
1551,2243.04,0.0
1552,2244.51,0.0
1553,2245.15,0.0
1554,2246.62,0.0
1555,2247.19,0.0
1556,2248.51,0.0
1557,2249.12,0.0
1558,2250.67,0.0
1559,2251.0,0.0
1560,2252.87,0.0
1561,2254.52,0.0
1562,2255.28,0.0
1563,2256.11,0.0
1564,2257.3,0.0
1565,2257.65,0.0
1566,2259.33,0.0
1567,2260.83,0.0
1568,2261.08,0.0
1569,2262.57,0.0
1570,2263.25,0.0
1571,2264.69,0.0
1572,2265.06,0.0
1573,2266.86,0.0
1574,2268.55,0.0
1575,2270.59,0.0
1576,2272.56,0.0
1577,2273.16,0.0
1578,2274.75,0.0
1579,2275.11,0.0
1580,2276.26,0.0
1581,2277.04,0.0
1582,2278.19,0.0
1583,2279.17,0.0
1584,2280.74,0.0
1585,2281.01,0.0
1586,2282.57,0.0
1587,2283.22,0.0
1588,2284.53,0.0
1589,2285.09,0.0
1590,2286.76,0.0
1591,2287.07,0.0
1592,2288.53,0.0
1593,2289.01,0.0
1594,2290.53,0.0
1595,2292.51,0.0
1596,2293.0,0.0
1597,2294.51,0.0
1598,2295.06,0.0
1599,2296.0,0.0
1600,2297.0,0.0
1601,2297.56,0.0
1602,2299.03,0.0
1603,2300.6,0.0
1604,2301.1,0.0
1605,2302.54,0.0
1606,2303.07,0.0
1607,2304.02,0.0
1608,2305.07,0.0
1609,2306.55,0.0
1610,2307.04,0.0
1611,2308.19,0.0
1612,2309.01,0.0
1613,2310.6,0.0
1614,2311.05,0.0
1615,2312.67,0.0
1616,2314.22,0.0
1617,2315.27,0.0
1618,2316.16,0.0
1619,2317.09,0.0
1620,2318.69,0.0
1621,2319.24,0.0
1622,2320.58,0.0
1623,2321.27,0.0
1624,2322.5,0.0
1625,2323.16,0.0
1626,2324.13,0.0
1627,2326.54,0.0
1628,2330.57,0.0
1629,2331.17,0.0
1630,2332.55,0.0
1631,2334.62,0.0
1632,2335.12,0.0
1633,2336.53,0.0
1634,2337.26,0.0
1635,2338.72,0.0
1636,2340.65,0.0
1637,2341.14,0.0
1638,2342.44,0.0
1639,2343.2,0.0
1640,2344.59,0.0
1641,2345.3,0.0
1642,2346.8,0.0
1643,2347.07,0.0
1644,2348.78,0.0
1645,2349.0,0.0
1646,2350.97,0.0
1647,2351.22,0.0
1648,2352.13,0.0
1649,2353.25,0.0
1650,2354.41,0.0
1651,2356.28,0.0
1652,2358.8,0.0
1653,2359.14,0.0
1654,2360.41,0.0
1655,2361.22,0.0
1656,2362.91,0.0
1657,2363.05,0.0
1658,2364.71,0.0
1659,2366.86,0.0
1660,2367.15,0.0
1661,2368.01,0.0
1662,2369.33,0.0
1663,2370.71,0.0
1664,2371.29,0.0
1665,2372.85,0.0
1666,2373.33,0.0
1667,2374.32,0.0
1668,2375.11,0.0
1669,2376.7,0.0
1670,2377.22,0.0
1671,2378.81,0.0
1672,2379.41,0.0
1673,2380.71,0.0
1674,2381.29,0.0
1675,2382.59,0.0
1676,2383.0,0.0
1677,2383.73,0.0
1678,2385.28,0.0
1679,2386.2,0.0
1680,2387.2,0.0
1681,2388.01,0.0
1682,2389.13,0.0
1683,2390.58,0.0
1684,2392.72,0.0
1685,2394.51,0.0
1686,2395.25,0.0
1687,2396.63,0.0
1688,2398.06,0.0
1689,2399.15,0.0
1690,2400.64,0.0
1691,2401.0,0.0
1692,2402.87,0.0
1693,2403.0,0.0
1694,2404.17,0.0
1695,2406.84,0.0
1696,2407.07,0.0
1697,2408.2,0.0
1698,2409.2,0.0
1699,2410.87,0.0
1700,2412.68,0.0
1701,2414.51,0.0
1702,2415.27,0.0
1703,2416.63,0.0
1704,2418.54,0.0
1705,2419.55,0.0
1706,2422.0,0.0
1707,2424.23,0.0
1708,2425.1,0.0
1709,2426.03,0.0
1710,2427.12,0.0
1711,2428.78,0.0
1712,2430.55,0.0
1713,2431.01,0.0
1714,2432.69,0.0
1715,2433.02,0.0
1716,2434.23,0.0
1717,2435.0,0.0
1718,2436.15,0.0
1719,2437.16,0.0
1720,2438.65,0.0
1721,2440.22,0.0
1722,2441.11,0.0
1723,2442.6,0.0
1724,2444.55,0.0
1725,2445.03,0.0
1726,2445.61,0.0
1727,2447.3,0.0
1728,2448.83,0.0
1729,2449.16,0.0
1730,2450.81,0.0
1731,2451.02,0.0
1732,2452.0,0.0
1733,2453.16,0.0
1734,2454.59,0.0
1735,2456.63,0.0
1736,2457.21,0.0
1737,2458.76,0.0
1738,2459.18,0.0
1739,2460.57,0.0
1740,2462.84,0.0
1741,2464.77,0.0
1742,2465.05,0.0
1743,2466.57,0.0
1744,2467.16,0.0
1745,2467.75,0.0
1746,2469.27,0.0
1747,2470.86,0.0
1748,2471.32,0.0
1749,2472.54,0.0
1750,2473.04,0.0
1751,2474.85,0.0
1752,2475.0,0.0
1753,2476.89,0.0
1754,2477.0,0.0
1755,2478.53,0.0
1756,2479.17,0.0
1757,2480.57,0.0
1758,2482.27,0.0
1759,2483.28,0.0
1760,2484.65,0.0
1761,2485.31,0.0
1762,2486.97,0.0
1763,2487.41,0.0
1764,2488.52,0.0
1765,2489.27,0.0
1766,2490.71,0.0
1767,2491.15,0.0
1768,2492.97,0.0
1769,2493.1,0.0
1770,2494.61,0.0
1771,2495.09,0.0
1772,2496.51,0.0
1773,2497.19,0.0
1774,2498.69,0.0
1775,2500.63,0.0
1776,2502.05,0.0
1777,2503.19,0.0
1778,2503.8,0.0
1779,2504.88,0.0
1780,2506.58,0.0
1781,2507.08,0.0
1782,2508.72,0.0
1783,2509.12,0.0
1784,2510.71,0.0
1785,2512.8,0.0
1786,2513.02,0.0
1787,2514.69,0.0
1788,2516.64,0.0
1789,2517.05,0.0
1790,2520.66,0.0
1791,2521.21,0.0
1792,2522.83,0.0
1793,2524.13,0.0
1794,2525.22,0.0
1795,2526.39,0.0
1796,2527.04,0.0
1797,2527.54,0.0
1798,2530.63,0.0
1799,2531.03,0.0
1800,2532.54,0.0
1801,2533.02,0.0
1802,2534.08,0.0
1803,2535.05,0.0
1804,2536.56,0.0
1805,2538.0,0.0
1806,2539.02,0.0
1807,2540.52,0.0
1808,2542.5,0.0
1809,2543.0,0.0
1810,2544.55,0.0
1811,2545.0,0.0
1812,2546.55,0.0
1813,2547.05,0.0
1814,2548.55,0.0
1815,2549.05,0.0
1816,2550.54,0.0
1817,2552.5,0.0
1818,2553.0,0.0
1819,2554.93,0.0
1820,2556.81,0.0
1821,2557.4,0.0
1822,2558.71,0.0
1823,2559.31,0.0
1824,2559.78,0.0
1825,2561.11,0.0
1826,2562.12,0.0
1827,2563.22,0.0
1828,2564.66,0.0
1829,2565.09,0.0
1830,2566.77,0.0
1831,2568.34,0.0
1832,2570.33,0.0
1833,2572.1,0.0
1834,2573.09,0.0
1835,2574.74,0.0
1836,2576.64,0.0
1837,2577.23,0.0
1838,2578.77,0.0
1839,2579.02,0.0
1840,2580.77,0.0
1841,2581.21,0.0
1842,2582.93,0.0
1843,2583.03,0.0
1844,2584.56,0.0
1845,2585.19,0.0
1846,2586.01,0.0
1847,2588.86,0.0
1848,2589.15,0.0
1849,2590.58,0.0
1850,2591.22,0.0
1851,2592.74,0.0
1852,2593.07,0.0
1853,2594.15,0.0
1854,2596.83,0.0
1855,2597.19,0.0
1856,2598.66,0.0
1857,2599.59,0.0
1858,2601.09,0.0
1859,2602.06,0.0
1860,2603.42,0.0
1861,2605.0,0.0
1862,2606.27,0.0
1863,2607.14,0.0
1864,2608.78,0.0
1865,2609.21,0.0
1866,2610.51,0.0
1867,2611.07,0.0
1868,2612.62,0.0
1869,2614.96,0.0
1870,2615.12,0.0
1871,2616.72,0.0
1872,2618.56,0.0
1873,2620.78,0.0
1874,2621.0,0.0
1875,2622.9,0.0
1876,2625.27,0.0
1877,2626.54,0.0
1878,2628.9,0.0
1879,2629.28,0.0
1880,2630.95,0.0
1881,2631.31,0.0
1882,2632.54,0.0
1883,2633.03,0.0
1884,2634.53,0.0
1885,2635.03,0.0
1886,2636.7,0.0
1887,2637.04,0.0
1888,2638.54,0.0
1889,2640.6,0.0
1890,2641.05,0.0
1891,2642.73,0.0
1892,2643.32,0.0
1893,2644.7,0.0
1894,2645.19,0.0
1895,2646.57,0.0
1896,2647.02,0.0
1897,2648.51,0.0
1898,2649.18,0.0
1899,2650.08,0.0
1900,2651.24,0.0
1901,2652.0,0.0
1902,2653.2,0.0
1903,2654.25,0.0
1904,2655.14,0.0
1905,2656.63,0.0
1906,2657.12,0.0
1907,2658.75,0.0
1908,2659.67,0.0
1909,2661.38,0.0
1910,2662.74,0.0
1911,2663.35,0.0
1912,2664.54,0.0
1913,2665.32,0.0
1914,2666.85,0.0
1915,2668.86,0.0
1916,2669.13,0.0
1917,2670.11,0.0
1918,2671.17,0.0
1919,2672.21,0.0
1920,2674.55,0.0
1921,2675.03,0.0
1922,2676.53,0.0
1923,2677.03,0.0
1924,2678.64,0.0
1925,2679.09,0.0
1926,2680.04,0.0
1927,2681.12,0.0
1928,2682.59,0.0
1929,2683.19,0.0
1930,2684.01,0.0
1931,2686.01,0.0
1932,2688.55,0.0
1933,2689.2,0.0
1934,2690.53,0.0
1935,2691.09,0.0
1936,2692.11,0.0
1937,2694.14,0.0
1938,2695.07,0.0
1939,2696.58,0.0
1940,2697.14,0.0
1941,2698.68,0.0
1942,2699.04,0.0
1943,2700.07,0.0
1944,2701.01,0.0
1945,2702.56,0.0
1946,2704.67,0.0
1947,2705.1,0.0
1948,2706.59,0.0
1949,2708.76,0.0
1950,2710.54,0.0
1951,2711.1,0.0
1952,2712.56,0.0
1953,2713.0,0.0
1954,2714.04,0.0
1955,2716.58,0.0
1956,2717.07,0.0
1957,2718.08,0.0
1958,2719.04,0.0
1959,2720.68,0.0
1960,2722.6,0.0
1961,2723.03,0.0
1962,2724.5,0.0
1963,2725.01,0.0
1964,2726.63,0.0
1965,2727.1,0.0
1966,2728.76,0.0
1967,2730.51,0.0
1968,2731.08,0.0
1969,2732.63,0.0
1970,2733.14,0.0
1971,2734.58,0.0
1972,2735.09,0.0
1973,2736.56,0.0
1974,2737.01,0.0
1975,2738.58,0.0
1976,2739.07,0.0
1977,2740.59,0.0
1978,2741.19,0.0
1979,2742.13,0.0
1980,2743.3,0.0
1981,2744.83,0.0
1982,2745.05,0.0
1983,2746.64,0.0
1984,2748.78,0.0
1985,2750.58,0.0
1986,2751.2,0.0
1987,2752.53,0.0
1988,2753.33,0.0
1989,2754.66,0.0
1990,2756.73,0.0
1991,2757.23,0.0
1992,2759.19,0.0
1993,2760.63,0.0
1994,2761.25,0.0
1995,2762.21,0.0
1996,2763.07,0.0
1997,2764.74,0.0
1998,2766.56,0.0
1999,2767.21,0.0
2000,2768.68,0.0
2001,2769.33,0.0
2002,2770.88,0.0
2003,2772.1,0.0
2004,2773.22,0.0
2005,2774.59,0.0
2006,2775.15,0.0
2007,2776.36,0.0
2008,2777.17,0.0
2009,2778.59,0.0
2010,2779.14,0.0
2011,2780.33,0.0
2012,2781.22,0.0
2013,2782.64,0.0
2014,2783.31,0.0
2015,2784.73,0.0
2016,2785.0,0.0
2017,2786.03,0.0
2018,2787.14,0.0
2019,2788.11,0.0
2020,2789.04,0.0
2021,2790.0,0.0
2022,2791.09,0.0
2023,2792.55,0.0
2024,2793.06,0.0
2025,2794.7,0.0
2026,2795.0,0.0
2027,2796.53,0.0
2028,2797.02,0.0
2029,2798.62,0.0
2030,2799.03,0.0
2031,2800.03,0.0
2032,2801.09,0.0
2033,2802.09,0.0
2034,2804.61,0.0
2035,2805.61,0.0
2036,2809.05,0.0
2037,2810.57,0.0
2038,2812.69,0.0
2039,2813.17,0.0
2040,2814.56,0.0
2041,2815.02,0.0
2042,2816.02,0.0
2043,2817.13,0.0
2044,2818.66,0.0
2045,2819.64,0.0
2046,2821.22,0.0
2047,2822.53,0.0
2048,2824.57,0.0
2049,2826.65,0.0
2050,2827.02,0.0
2051,2830.05,0.0
2052,2831.2,0.0
2053,2832.21,0.0
2054,2834.5,0.0
2055,2836.73,0.0
2056,2838.55,0.0
2057,2839.34,0.0
2058,2840.6,0.0
2059,2841.09,0.0
2060,2842.56,0.0
2061,2843.05,0.0
2062,2844.84,0.0
2063,2846.14,0.0
2064,2847.37,0.0
2065,2848.62,0.0
2066,2849.33,0.0
2067,2850.2,0.0
2068,2850.75,0.0
2069,2852.68,0.0
2070,2854.97,0.0
2071,2855.06,0.0
2072,2856.88,0.0
2073,2858.53,0.0
2074,2860.5,0.0
2075,2862.68,0.0
2076,2863.1,0.0
2077,2864.06,0.0
2078,2865.06,0.0
2079,2866.29,0.0
2080,2867.17,0.0
2081,2868.62,0.0
2082,2870.8,0.0
2083,2871.25,0.0
2084,2872.21,0.0
2085,2873.11,0.0
2086,2874.67,0.0
2087,2875.04,0.0
2088,2876.53,0.0
2089,2877.12,0.0
2090,2878.59,0.0
2091,2879.45,0.0
2092,2880.85,0.0
2093,2882.7,0.0
2094,2883.01,0.0
2095,2884.7,0.0
2096,2885.0,0.0
2097,2886.67,0.0
2098,2888.25,0.0
2099,2889.02,0.0
2100,2890.55,0.0
2101,2891.14,0.0
2102,2892.94,0.0
2103,2894.62,0.0
2104,2895.03,0.0
2105,2896.7,0.0
2106,2898.25,0.0
2107,2899.05,0.0
2108,2900.76,0.0
2109,2901.32,0.0
2110,2902.02,0.0
2111,2903.05,0.0
2112,2903.68,0.0
2113,2905.22,0.0
2114,2906.64,0.0
2115,2907.02,0.0
2116,2908.5,0.0
2117,2909.08,0.0
2118,2910.6,0.0
2119,2911.16,0.0
2120,2912.69,0.0
2121,2913.03,0.0
2122,2914.55,0.0
2123,2916.6,0.0
2124,2917.3,0.0
2125,2918.41,0.0
2126,2919.33,0.0
2127,2920.06,0.0
2128,2921.29,0.0
2129,2922.05,0.0
2130,2923.29,0.0
2131,2924.51,0.0
2132,2925.15,0.0
2133,2926.57,0.0
2134,2928.61,0.0
2135,2929.15,0.0
2136,2930.61,0.0
2137,2931.05,0.0
2138,2932.52,0.0
2139,2933.05,0.0
2140,2935.01,0.0
2141,2936.52,0.0
2142,2937.06,0.0
2143,2938.67,0.0
2144,2940.51,0.0
2145,2941.15,0.0
2146,2942.82,0.0
2147,2943.05,0.0
2148,2944.53,0.0
2149,2945.01,0.0
2150,2946.58,0.0
2151,2947.01,0.0
2152,2948.56,0.0
2153,2949.01,0.0
2154,2950.59,0.0
2155,2951.0,0.0
2156,2952.54,0.0
2157,2954.55,0.0
2158,2955.01,0.0
2159,2956.0,0.0
2160,2957.0,0.0
2161,2958.57,0.0
2162,2959.08,0.0
2163,2960.05,0.0
2164,2962.55,0.0
2165,2963.02,0.0
2166,2964.56,0.0
2167,2965.09,0.0
2168,2966.56,0.0
2169,2967.06,0.0
2170,2967.57,0.0
2171,2969.04,0.0
2172,2970.57,0.0
2173,2972.53,0.0
2174,2973.01,0.0
2175,2974.74,0.0
2176,2975.04,0.0
2177,2976.65,0.0
2178,2978.25,0.0
2179,2979.19,0.0
2180,2980.62,0.0
2181,2981.17,0.0
2182,2982.55,0.0
2183,2984.69,0.0
2184,2985.18,0.0
2185,2986.64,0.0
2186,2987.36,0.0
2187,2988.83,0.0
2188,2989.07,0.0
2189,2990.38,0.0
2190,2992.73,0.0
2191,2993.19,0.0
2192,2994.23,0.0
2193,2996.13,0.0
2194,2997.03,0.0
2195,2998.51,0.0
2196,2999.02,0.0
2197,3000.57,0.0
2198,3001.0,0.0
2199,3002.69,0.0
2200,3003.18,0.0
2201,3004.59,0.0
2202,3005.05,0.0
2203,3006.53,0.0
2204,3007.25,0.0
2205,3008.74,0.0
2206,3010.56,0.0
2207,3011.24,0.0
2208,3012.35,0.0
2209,3013.05,0.0
2210,3014.55,0.0
2211,3015.14,0.0
2212,3016.65,0.0
2213,3017.0,0.0
2214,3018.71,0.0
2215,3019.05,0.0
2216,3020.7,0.0
2217,3021.08,0.0
2218,3022.79,0.0
2219,3023.29,0.0
2220,3023.52,0.0
2221,3025.0,0.0
2222,3026.53,0.0
2223,3027.01,0.0
2224,3028.61,0.0
2225,3029.01,0.0
2226,3030.5,0.0
2227,3032.59,0.0
2228,3033.01,0.0
2229,3034.6,0.0
2230,3035.03,0.0
2231,3036.66,0.0
2232,3038.54,0.0
2233,3039.1,0.0
2234,3040.09,0.0
2235,3041.12,0.0
2236,3042.52,0.0
2237,3043.09,0.0
2238,3044.68,0.0
2239,3045.03,0.0
2240,3046.52,0.0
2241,3047.08,0.0
2242,3048.0,0.0
2243,3049.21,0.0
2244,3050.58,0.0
2245,3051.11,0.0
2246,3052.12,0.0
2247,3053.15,0.0
2248,3054.6,0.0
2249,3056.11,0.0
2250,3057.18,0.0
2251,3058.74,0.0
2252,3059.29,0.0
2253,3060.73,0.0
2254,3061.09,0.0
2255,3062.7,0.0
2256,3064.55,0.0
2257,3065.03,0.0
2258,3066.77,0.0
2259,3068.66,0.0
2260,3069.55,0.0
2261,3072.59,0.0
2262,3073.13,0.0
2263,3074.67,0.0
2264,3075.43,0.0
2265,3076.04,0.0
2266,3077.06,0.0
2267,3078.62,0.0
2268,3079.01,0.0
2269,3080.55,0.0
2270,3082.58,0.0
2271,3083.08,0.0
2272,3084.59,0.0
2273,3085.01,0.0
2274,3086.74,0.0
2275,3088.11,0.0
2276,3089.3,0.0
2277,3090.6,0.0
2278,3092.37,0.0
2279,3093.05,0.0
2280,3095.05,0.0
2281,3096.92,0.0
2282,3097.24,0.0
2283,3097.65,0.0
2284,3099.43,0.0
2285,3100.1,0.0
2286,3101.22,0.0
2287,3102.75,0.0
2288,3104.24,0.0
2289,3105.08,0.0
2290,3106.14,0.0
2291,3107.05,0.0
2292,3108.68,0.0
2293,3110.86,0.0
2294,3111.15,0.0
2295,3112.61,0.0
2296,3113.17,0.0
2297,3114.65,0.0
2298,3115.05,0.0
2299,3116.73,0.0
2300,3117.2,0.0
2301,3118.59,0.0
2302,3120.5,0.0
2303,3121.3,0.0
2304,3122.67,0.0
2305,3123.03,0.0
2306,3124.11,0.0
2307,3126.37,0.0
2308,3127.16,0.0
2309,3128.84,0.0
2310,3129.03,0.0
2311,3130.62,0.0
2312,3132.62,0.0
2313,3133.11,0.0
2314,3134.58,0.0
2315,3135.26,0.0
2316,3136.68,0.0
2317,3137.21,0.0
2318,3138.65,0.0
2319,3139.25,0.0
2320,3140.78,0.0
2321,3141.21,0.0
2322,3142.77,0.0
2323,3143.08,0.0
2324,3144.77,0.0
2325,3145.07,0.0
2326,3146.74,0.0
2327,3147.14,0.0
2328,3148.9,0.0
2329,3149.01,0.0
2330,3150.14,0.0
2331,3151.06,0.0
2332,3152.47,0.0
2333,3153.13,0.0
2334,3154.58,0.0
2335,3155.27,0.0
2336,3156.76,0.0
2337,3157.05,0.0
2338,3158.03,0.0
2339,3160.73,0.0
2340,3161.49,0.0
2341,3162.71,0.0
2342,3163.16,0.0
2343,3164.03,0.0
2344,3166.58,0.0
2345,3167.02,0.0
2346,3168.69,0.0
2347,3169.0,0.0
2348,3170.07,0.0
2349,3171.04,0.0
2350,3171.62,0.0
2351,3174.55,0.0
2352,3176.64,0.0
2353,3178.34,0.0
2354,3180.65,0.0
2355,3182.1,0.0
2356,3182.89,0.0
2357,3184.85,0.0
2358,3186.58,0.0
2359,3187.18,0.0
2360,3188.32,0.0
2361,3189.03,0.0
2362,3193.51,0.0
2363,3195.1,0.0
2364,3196.67,0.0
2365,3197.14,0.0
2366,3198.07,0.0
2367,3199.05,0.0
2368,3200.71,0.0
2369,3201.26,0.0
2370,3202.84,0.0
2371,3203.07,0.0
2372,3204.5,0.0
2373,3205.05,0.0
2374,3206.56,0.0
2375,3207.29,0.0
2376,3208.64,0.0
2377,3209.22,0.0
2378,3210.01,0.0
2379,3211.17,0.0
2380,3212.77,0.0
2381,3213.07,0.0
2382,3214.72,0.0
2383,3215.0,0.0
2384,3216.75,0.0
2385,3217.07,0.0
2386,3218.79,0.0
2387,3219.05,0.0
2388,3220.17,0.0
2389,3221.27,0.0
2390,3222.61,0.0
2391,3223.11,0.0
2392,3224.81,0.0
2393,3225.01,0.0
2394,3225.5,0.0
2395,3227.1,0.0
2396,3228.79,0.0
2397,3229.22,0.0
2398,3230.23,0.0
2399,3231.1,0.0
2400,3232.89,0.0
2401,3234.68,0.0
2402,3235.23,0.0
2403,3237.02,0.0
2404,3238.53,0.0
2405,3240.72,0.0
2406,3241.08,0.0
2407,3242.72,0.0
2408,3243.19,0.0
2409,3244.51,0.0
2410,3246.11,0.0
2411,3247.1,0.0
2412,3248.64,0.0
2413,3249.19,0.0
2414,3250.39,0.0
2415,3250.83,0.0
2416,3252.77,0.0
2417,3253.34,0.0
2418,3254.74,0.0
2419,3255.17,0.0
2420,3256.5,0.0
2421,3258.62,0.0
2422,3259.14,0.0
2423,3260.53,0.0
2424,3261.0,0.0
2425,3262.51,0.0
2426,3263.01,0.0
2427,3264.59,0.0
2428,3265.08,0.0
2429,3266.64,0.0
2430,3268.5,0.0
2431,3269.19,0.0
2432,3270.21,0.0
2433,3271.05,0.0
2434,3272.53,0.0
2435,3273.01,0.0
2436,3274.68,0.0
2437,3276.66,0.0
2438,3277.12,0.0
2439,3278.61,0.0
2440,3279.18,0.0
2441,3280.82,0.0
2442,3282.65,0.0
2443,3284.23,0.0
2444,3285.35,0.0
2445,3286.73,0.0
2446,3287.46,0.0
2447,3288.76,0.0
2448,3289.12,0.0
2449,3290.3,0.0
2450,3291.03,0.0
2451,3292.57,0.0
2452,3293.39,0.0
2453,3294.6,0.0
2454,3295.01,0.0
2455,3296.58,0.0
2456,3298.68,0.0
2457,3299.26,0.0
2458,3300.56,0.0
2459,3301.17,0.0
2460,3302.78,0.0
2461,3304.76,0.0
2462,3305.31,0.0
2463,3306.75,0.0
2464,3308.51,0.0
2465,3309.09,0.0
2466,3310.21,0.0
2467,3311.13,0.0
2468,3312.61,0.0
2469,3314.53,0.0
2470,3316.84,0.0
2471,3317.11,0.0
2472,3319.27,0.0
2473,3320.73,0.0
2474,3321.12,0.0
2475,3321.7,0.0
2476,3323.16,0.0
2477,3324.54,0.0
2478,3325.29,0.0
2479,3325.89,0.0
2480,3328.03,0.0
2481,3329.09,0.0
2482,3330.34,0.0
2483,3331.11,0.0
2484,3332.18,0.0
2485,3333.11,0.0
2486,3334.59,0.0
2487,3335.15,0.0
2488,3336.81,0.0
2489,3337.35,0.0
2490,3338.92,0.0
2491,3340.56,0.0
2492,3341.25,0.0
2493,3342.26,0.0
2494,3343.1,0.0
2495,3344.36,0.0
2496,3344.85,0.0
2497,3346.92,0.0
2498,3347.2,0.0
2499,3348.5,0.0
2500,3349.38,0.0
2501,3350.61,0.0
2502,3352.54,0.0
2503,3353.03,0.0
2504,3353.62,0.0
2505,3356.26,0.0
2506,3356.82,0.0
2507,3358.82,0.0
2508,3359.8,0.0
2509,3361.15,0.0
2510,3362.66,0.0
2511,3363.17,0.0
2512,3363.5,0.0
2513,3366.32,0.0
2514,3367.07,0.0
2515,3368.22,0.0
2516,3369.16,0.0
2517,3370.28,0.0
2518,3372.52,0.0
2519,3373.17,0.0
2520,3374.74,0.0
2521,3375.13,0.0
2522,3376.5,0.0
2523,3377.05,0.0
2524,3378.84,0.0
2525,3380.81,0.0
2526,3381.28,0.0
2527,3382.72,0.0
2528,3383.18,0.0
2529,3384.64,0.0
2530,3385.22,0.0
2531,3386.51,0.0
2532,3387.01,0.0
2533,3388.52,0.0
2534,3389.04,0.0
2535,3390.03,0.0
2536,3392.04,0.0
2537,3394.54,0.0
2538,3395.06,0.0
2539,3396.52,0.0
2540,3397.07,0.0
2541,3398.06,0.0
2542,3399.02,0.0
2543,3400.55,0.0
2544,3401.08,0.0
2545,3402.52,0.0
2546,3403.02,0.0
2547,3404.52,0.0
2548,3405.01,0.0
2549,3406.02,0.0
2550,3408.57,0.0
2551,3409.04,0.0
2552,3410.53,0.0
2553,3412.57,0.0
2554,3413.14,0.0
2555,3414.5,0.0
2556,3415.07,0.0
2557,3416.07,0.0
2558,3417.09,0.0
2559,3418.55,0.0
2560,3419.17,0.0
2561,3420.5,0.0
2562,3421.01,0.0
2563,3422.59,0.0
2564,3423.2,0.0
2565,3424.53,0.0
2566,3426.54,0.0
2567,3427.1,0.0
2568,3428.51,0.0
2569,3430.02,0.0
2570,3432.67,0.0
2571,3433.05,0.0
2572,3434.59,0.0
2573,3435.06,0.0
2574,3436.07,0.0
2575,3437.0,0.0
2576,3438.57,0.0
2577,3439.14,0.0
2578,3440.13,0.0
2579,3442.52,0.0
2580,3443.02,0.0
2581,3444.09,0.0
2582,3445.03,0.0
2583,3446.51,0.0
2584,3447.04,0.0
2585,3448.52,0.0
2586,3449.02,0.0
2587,3450.68,0.0
2588,3452.06,0.0
2589,3453.12,0.0
2590,3454.05,0.0
2591,3455.03,0.0
2592,3456.53,0.0
2593,3458.59,0.0
2594,3459.17,0.0
2595,3460.5,0.0
2596,3461.0,0.0
2597,3462.1,0.0
2598,3463.16,0.0
2599,3464.5,0.0
2600,3465.11,0.0
2601,3466.5,0.0
2602,3468.1,0.0
2603,3470.52,0.0
2604,3471.02,0.0
2605,3472.06,0.0
2606,3474.54,0.0
2607,3475.06,0.0
2608,3476.14,0.0
2609,3478.65,0.0
2610,3479.04,0.0
2611,3480.06,0.0
2612,3481.03,0.0
2613,3482.5,0.0
2614,3484.01,0.0
2615,3486.5,0.0
2616,3487.0,0.0
2617,3488.01,0.0
2618,3490.5,0.0
2619,3492.02,0.0
2620,3493.05,0.0
2621,3494.01,0.0
2622,3495.01,0.0
2623,3496.52,0.0
2624,3497.0,0.0
2625,3498.52,0.0
2626,3499.01,0.0
2627,3500.02,0.0
2628,3502.53,0.0
2629,3503.04,0.0
2630,3504.56,0.0
2631,3505.0,0.0
2632,3506.0,0.0
2633,3507.03,0.0
2634,3508.55,0.0
2635,3509.09,0.0
2636,3510.52,0.0
2637,3511.01,0.0
2638,3512.0,0.0
2639,3513.01,0.0
2640,3514.14,0.0
2641,3516.51,0.0
2642,3518.62,0.0
2643,3519.04,0.0
2644,3520.52,0.0
2645,3521.07,0.0
2646,3522.5,0.0
2647,3523.13,0.0
2648,3524.5,0.0
2649,3525.03,0.0
2650,3526.12,0.0
2651,3527.03,0.0
2652,3528.1,0.0
2653,3530.52,0.0
2654,3532.51,0.0
2655,3533.01,0.0
2656,3534.6,0.0
2657,3536.5,0.0
2658,3537.06,0.0
2659,3537.52,0.0
2660,3539.13,0.0
2661,3540.51,0.0
2662,3542.51,0.0
2663,3544.56,0.0
2664,3545.11,0.0
2665,3546.54,0.0
2666,3547.04,0.0
2667,3548.53,0.0
2668,3550.51,0.0
2669,3551.02,0.0
2670,3552.0,0.0
2671,3552.79,0.0
2672,3554.56,0.0
2673,3555.02,0.0
2674,3556.51,0.0
2675,3557.03,0.0
2676,3558.56,0.0
2677,3559.12,0.0
2678,3560.5,0.0
2679,3561.06,0.0
2680,3562.51,0.0
2681,3564.61,0.0
2682,3565.02,0.0
2683,3566.62,0.0
2684,3567.02,0.0
2685,3568.59,0.0
2686,3570.16,0.0
2687,3571.06,0.0
2688,3572.54,0.0
2689,3573.13,0.0
2690,3574.61,0.0
2691,3575.5,0.0
2692,3577.04,0.0
2693,3578.52,0.0
2694,3580.59,0.0
2695,3581.13,0.0
2696,3582.5,0.0
2697,3583.05,0.0
2698,3584.04,0.0
2699,3585.03,0.0
2700,3586.54,0.0
2701,3588.52,0.0
2702,3589.02,0.0
2703,3590.52,0.0
2704,3591.04,0.0
2705,3592.57,0.0
2706,3594.0,0.0
2707,3595.02,0.0
2708,3596.07,0.0
2709,3597.07,0.0
2710,3598.54,0.0
2711,3599.04,0.0
2712,3600.5,0.0
2713,3602.52,0.0
2714,3604.56,0.0
2715,3606.62,0.0
2716,3607.0,0.0
2717,3608.52,0.0
2718,3609.06,0.0
2719,3610.55,0.0
2720,3611.06,0.0
2721,3612.59,0.0
2722,3614.02,0.0
2723,3615.1,0.0
2724,3616.53,0.0
2725,3617.05,0.0
2726,3618.09,0.0
2727,3619.01,0.0
2728,3620.53,0.0
2729,3621.0,0.0
2730,3622.56,0.0
2731,3623.06,0.0
2732,3624.59,0.0
2733,3625.02,0.0
2734,3625.51,0.0
2735,3627.07,0.0
2736,3628.52,0.0
2737,3629.1,0.0
2738,3630.53,0.0
2739,3631.06,0.0
2740,3632.54,0.0
2741,3633.05,0.0
2742,3634.59,0.0
2743,3635.08,0.0
2744,3636.64,0.0
2745,3637.06,0.0
2746,3638.53,0.0
2747,3639.07,0.0
2748,3640.6,0.0
2749,3642.5,0.0
2750,3643.04,0.0
2751,3644.53,0.0
2752,3645.02,0.0
2753,3646.6,0.0
2754,3647.0,0.0
2755,3648.65,0.0
2756,3649.1,0.0
2757,3650.5,0.0
2758,3652.63,0.0
2759,3654.57,0.0
2760,3656.62,0.0
2761,3657.13,0.0
2762,3658.01,0.0
2763,3659.07,0.0
2764,3660.62,0.0
2765,3662.56,0.0
2766,3664.52,0.0
2767,3665.02,0.0
2768,3666.62,0.0
2769,3667.02,0.0
2770,3668.5,0.0
2771,3669.05,0.0
2772,3670.5,0.0
2773,3671.03,0.0
2774,3672.58,0.0
2775,3674.5,0.0
2776,3675.0,0.0
2777,3676.5,0.0
2778,3677.0,0.0
2779,3678.6,0.0
2780,3679.0,0.0
2781,3680.55,0.0
2782,3681.02,0.0
2783,3682.54,0.0
2784,3684.54,0.0
2785,3686.56,0.0
2786,3687.08,0.0
2787,3688.5,0.0
2788,3689.03,0.0
2789,3690.51,0.0
2790,3691.01,0.0
2791,3692.51,0.0
2792,3693.01,0.0
2793,3694.55,0.0
2794,3695.02,0.0
2795,3696.5,0.0
2796,3697.01,0.0
2797,3698.51,0.0
2798,3699.06,0.0
2799,3700.6,0.0
2800,3701.02,0.0
2801,3702.53,0.0
2802,3703.01,0.0
2803,3703.5,0.0
2804,3705.04,0.0
2805,3706.55,0.0
2806,3708.5,0.0
2807,3709.09,0.0
2808,3709.63,0.0
2809,3711.06,0.0
2810,3712.52,0.0
2811,3713.03,0.0
2812,3714.51,0.0
2813,3715.0,0.0
2814,3716.57,0.0
2815,3717.11,0.0
2816,3718.07,0.0
2817,3719.03,0.0
2818,3720.55,0.0
2819,3721.0,0.0
2820,3721.51,0.0
2821,3723.03,0.0
2822,3724.59,0.0
2823,3725.06,0.0
2824,3726.03,0.0
2825,3727.02,0.0
2826,3728.62,0.0
2827,3729.09,0.0
2828,3730.51,0.0
2829,3731.06,0.0
2830,3732.52,0.0
2831,3733.03,0.0
2832,3734.54,0.0
2833,3736.5,0.0
2834,3737.05,0.0
2835,3738.5,0.0
2836,3739.06,0.0
2837,3740.56,0.0
2838,3741.13,0.0
2839,3742.55,0.0
2840,3743.03,0.0
2841,3744.54,0.0
2842,3745.1,0.0
2843,3746.06,0.0
2844,3748.54,0.0
2845,3749.02,0.0
2846,3750.57,0.0
2847,3751.05,0.0
2848,3752.52,0.0
2849,3753.04,0.0
2850,3754.52,0.0
2851,3756.53,0.0
2852,3757.12,0.0
2853,3758.0,0.0
2854,3759.0,0.0
2855,3760.03,0.0
2856,3762.5,0.0
2857,3763.08,0.0
2858,3764.51,0.0
2859,3766.53,0.0
2860,3767.05,0.0
2861,3768.5,0.0
2862,3770.51,0.0
2863,3771.02,0.0
2864,3772.52,0.0
2865,3774.51,0.0
2866,3775.05,0.0
2867,3776.54,0.0
2868,3777.06,0.0
2869,3778.0,0.0
2870,3779.0,0.0
2871,3780.53,0.0
2872,3781.0,0.0
2873,3782.5,0.0
2874,3783.03,0.0
2875,3784.03,0.0
2876,3786.76,0.0
2877,3787.01,0.0
2878,3788.15,0.0
2879,3789.08,0.0
2880,3790.21,0.0
2881,3791.3,0.0
2882,3792.06,0.0
2883,3793.03,0.0
2884,3794.6,0.0
2885,3795.23,0.0
2886,3796.16,0.0
2887,3797.14,0.0
2888,3798.19,0.0
2889,3800.72,0.0
2890,3801.22,0.0
2891,3802.55,0.0
2892,3803.11,0.0
2893,3804.73,0.0
2894,3805.32,0.0
2895,3806.64,0.0
2896,3807.01,0.0
2897,3808.69,0.0
2898,3809.04,0.0
2899,3810.56,0.0
2900,3811.01,0.0
2901,3812.52,0.0
2902,3813.02,0.0
2903,3813.5,0.0
2904,3815.02,0.0
2905,3816.51,0.0
2906,3817.11,0.0
2907,3818.53,0.0
2908,3819.01,0.0
2909,3820.52,0.0
2910,3821.03,0.0
2911,3822.53,0.0
2912,3823.05,0.0
2913,3824.56,0.0
2914,3825.03,0.0
2915,3826.58,0.0
2916,3827.08,0.0
2917,3828.62,0.0
2918,3829.08,0.0
2919,3830.52,0.0
2920,3831.22,0.0
2921,3832.59,0.0
2922,3833.13,0.0
2923,3834.6,0.0
2924,3835.01,0.0
2925,3836.65,0.0
2926,3838.61,0.0
2927,3839.08,0.0
2928,3840.5,0.0
2929,3841.1,0.0
2930,3842.5,0.0
2931,3843.02,0.0
2932,3844.69,0.0
2933,3846.64,0.0
2934,3847.21,0.0
2935,3848.2,0.0
2936,3850.0,0.0
2937,3851.15,0.0
2938,3852.11,0.0
2939,3853.04,0.0
2940,3854.55,0.0
2941,3855.06,0.0
2942,3856.64,0.0
2943,3857.1,0.0
2944,3858.62,0.0
2945,3859.05,0.0
2946,3860.58,0.0
2947,3861.09,0.0
2948,3862.7,0.0
2949,3864.09,0.0
2950,3865.01,0.0
2951,3866.52,0.0
2952,3868.6,0.0
2953,3869.15,0.0
2954,3870.56,0.0
2955,3871.06,0.0
2956,3872.61,0.0
2957,3874.6,0.0
2958,3875.03,0.0
2959,3876.63,0.0
2960,3877.05,0.0
2961,3878.54,0.0
2962,3879.06,0.0
2963,3880.56,0.0
2964,3881.02,0.0
2965,3882.5,0.0
2966,3884.5,0.0
2967,3885.01,0.0
2968,3886.56,0.0
2969,3887.11,0.0
2970,3888.56,0.0
2971,3889.02,0.0
2972,3890.55,0.0
2973,3891.06,0.0
2974,3892.52,0.0
2975,3894.62,0.0
2976,3895.08,0.0
2977,3896.51,0.0
2978,3897.08,0.0
2979,3898.5,0.0
2980,3899.1,0.0
2981,3900.57,0.0
2982,3901.08,0.0
2983,3902.5,0.0
2984,3904.51,0.0
2985,3906.59,0.0
2986,3907.05,0.0
2987,3908.51,0.0
2988,3910.55,0.0
2989,3911.03,0.0
2990,3912.03,0.0
2991,3913.0,0.0
2992,3914.58,0.0
2993,3915.02,0.0
2994,3916.58,0.0
2995,3918.51,0.0
2996,3919.06,0.0
2997,3920.0,0.0
2998,3922.57,0.0
2999,3923.03,0.0
3000,3924.02,0.0
3001,3925.03,0.0
3002,3926.5,0.0
3003,3927.03,0.0
3004,3928.52,0.0
3005,3929.08,0.0
3006,3930.63,0.0
3007,3931.08,0.0
3008,3932.58,0.0
3009,3933.01,0.0
3010,3934.6,0.0
3011,3935.12,0.0
3012,3936.57,0.0
3013,3937.02,0.0
3014,3938.5,0.0
3015,3939.04,0.0
3016,3940.52,0.0
3017,3941.04,0.0
3018,3942.53,0.0
3019,3944.56,0.0
3020,3945.02,0.0
3021,3946.52,0.0
3022,3947.1,0.0
3023,3948.5,0.0
3024,3949.08,0.0
3025,3950.52,0.0
3026,3951.05,0.0
3027,3952.59,0.0
3028,3953.09,0.0
3029,3954.51,0.0
3030,3955.0,0.0
3031,3956.61,0.0
3032,3957.0,0.0
3033,3958.61,0.0
3034,3959.03,0.0
3035,3960.52,0.0
3036,3961.03,0.0
3037,3962.0,0.0
3038,3963.01,0.0
3039,3964.0,0.0
3040,3965.0,0.0
3041,3966.01,0.0
3042,3967.0,0.0
3043,3969.02,0.0
3044,3970.02,0.0
3045,3971.02,0.0
3046,3972.53,0.0
3047,3973.02,0.0
3048,3974.52,0.0
3049,3975.0,0.0
3050,3976.51,0.0
3051,3977.01,0.0
3052,3978.51,0.0
3053,3980.52,0.0
3054,3981.0,0.0
3055,3982.52,0.0
3056,3983.0,0.0
3057,3984.52,0.0
3058,3985.0,0.0
3059,3986.52,0.0
3060,3987.0,0.0
3061,3988.53,0.0
3062,3989.01,0.0
3063,3990.5,0.0
3064,3992.53,0.0
3065,3993.03,0.0
3066,3994.51,0.0
3067,3995.0,0.0
3068,3996.51,0.0
3069,3997.04,0.0
3070,3998.54,0.0
3071,3999.02,0.0
3072,4000.59,0.0
3073,4001.03,0.0
3074,4002.66,0.0
3075,4003.08,0.0
3076,4004.54,0.0
3077,4006.62,0.0
3078,4007.01,0.0
3079,4008.51,0.0
3080,4009.01,0.0
3081,4010.59,0.0
3082,4011.08,0.0
3083,4012.09,0.0
3084,4013.06,0.0
3085,4014.57,0.0
3086,4015.0,0.0
3087,4016.52,0.0
3088,4017.07,0.0
3089,4018.51,0.0
3090,4019.06,0.0
3091,4020.52,0.0
3092,4021.08,0.0
3093,4022.55,0.0
3094,4023.05,0.0
3095,4024.55,0.0
3096,4026.53,0.0
3097,4027.05,0.0
3098,4027.51,0.0
3099,4029.07,0.0
3100,4030.06,0.0
3101,4032.51,0.0
3102,4034.53,0.0
3103,4035.0,0.0
3104,4036.54,0.0
3105,4037.0,0.0
3106,4038.61,0.0
3107,4039.08,0.0
3108,4040.5,0.0
3109,4041.06,0.0
3110,4042.06,0.0
3111,4043.01,0.0
3112,4044.54,0.0
3113,4045.05,0.0
3114,4046.59,0.0
3115,4047.02,0.0
3116,4048.59,0.0
3117,4049.03,0.0
3118,4050.5,0.0
3119,4051.02,0.0
3120,4052.5,0.0
3121,4053.02,0.0
3122,4054.56,0.0
3123,4055.04,0.0
3124,4056.6,0.0
3125,4057.03,0.0
3126,4058.52,0.0
3127,4060.6,0.0
3128,4061.11,0.0
3129,4062.51,0.0
3130,4063.02,0.0
3131,4064.02,0.0
3132,4065.08,0.0
3133,4066.56,0.0
3134,4067.0,0.0
3135,4068.5,0.0
3136,4069.1,0.0
3137,4070.52,0.0
3138,4071.0,0.0
3139,4072.57,0.0
3140,4073.05,0.0
3141,4074.69,0.0
3142,4075.06,0.0
3143,4076.58,0.0
3144,4077.02,0.0
3145,4078.51,0.0
3146,4079.14,0.0
3147,4080.54,0.0
3148,4081.01,0.0
3149,4081.6,0.0
3150,4083.1,0.0
3151,4084.61,0.0
3152,4085.03,0.0
3153,4086.63,0.0
3154,4088.01,0.0
3155,4089.02,0.0
3156,4090.56,0.0
3157,4091.02,0.0
3158,4092.06,0.0
3159,4094.53,0.0
3160,4095.13,0.0
3161,4096.53,0.0
3162,4097.15,0.0
3163,4098.56,0.0
3164,4099.02,0.0
3165,4100.03,0.0
3166,4101.0,0.0
3167,4102.57,0.0
3168,4103.08,0.0
3169,4104.62,0.0
3170,4105.0,0.0
3171,4106.04,0.0
3172,4107.1,0.0
3173,4108.55,0.0
3174,4109.1,0.0
3175,4110.03,0.0
3176,4111.03,0.0
3177,4112.5,0.0
3178,4113.01,0.0
3179,4114.51,0.0
3180,4115.04,0.0
3181,4116.53,0.0
3182,4117.05,0.0
3183,4118.13,0.0
3184,4120.04,0.0
3185,4121.05,0.0
3186,4122.51,0.0
3187,4123.03,0.0
3188,4124.56,0.0
3189,4125.0,0.0
3190,4126.07,0.0
3191,4127.01,0.0
3192,4128.59,0.0
3193,4131.55,0.0
3194,4133.02,0.0
3195,4134.03,0.0
3196,4135.02,0.0
3197,4136.63,0.0
3198,4138.07,0.0
3199,4139.11,0.0
3200,4140.72,0.0
3201,4142.54,0.0
3202,4143.12,0.0
3203,4144.04,0.0
3204,4145.0,0.0
3205,4146.52,0.0
3206,4147.06,0.0
3207,4148.54,0.0
3208,4149.19,0.0
3209,4150.63,0.0
3210,4151.08,0.0
3211,4152.56,0.0
3212,4153.0,0.0
3213,4154.5,0.0
3214,4155.04,0.0
3215,4156.51,0.0
3216,4157.01,0.0
3217,4158.5,0.0
3218,4159.0,0.0
3219,4160.5,0.0
3220,4162.51,0.0
3221,4163.04,0.0
3222,4164.5,0.0
3223,4165.0,0.0
3224,4166.5,0.0
3225,4167.0,0.0
3226,4168.5,0.0
3227,4170.51,0.0
3228,4171.01,0.0
3229,4172.7,0.0
3230,4173.03,0.0
3231,4174.54,0.0
3232,4175.1,0.0
3233,4176.55,0.0
3234,4177.09,0.0
3235,4178.5,0.0
3236,4179.0,0.0
3237,4180.53,0.0
3238,4181.05,0.0
3239,4182.63,0.0
3240,4183.0,0.0
3241,4184.56,0.0
3242,4185.1,0.0
3243,4186.54,0.0
3244,4187.11,0.0
3245,4188.53,0.0
3246,4189.03,0.0
3247,4190.04,0.0
3248,4192.56,0.0
3249,4193.13,0.0
3250,4194.51,0.0
3251,4195.03,0.0
3252,4196.55,0.0
3253,4197.05,0.0
3254,4198.54,0.0
3255,4199.16,0.0
3256,4200.59,0.0
3257,4201.01,0.0
3258,4202.59,0.0
3259,4203.0,0.0
3260,4204.52,0.0
3261,4205.06,0.0
3262,4206.52,0.0
3263,4208.5,0.0
3264,4210.59,0.0
3265,4211.0,0.0
3266,4212.69,0.0
3267,4213.01,0.0
3268,4214.5,0.0
3269,4215.02,0.0
3270,4216.62,0.0
3271,4217.05,0.0
3272,4218.53,0.0
3273,4219.08,0.0
3274,4220.69,0.0
3275,4221.13,0.0
3276,4222.2,0.0
3277,4223.02,0.0
3278,4224.59,0.0
3279,4225.15,0.0
3280,4226.57,0.0
3281,4228.06,0.0
3282,4229.22,0.0
3283,4230.13,0.0
3284,4231.1,0.0
3285,4232.52,0.0
3286,4233.14,0.0
3287,4233.59,0.0
3288,4235.02,0.0
3289,4236.76,0.0
3290,4237.03,0.0
3291,4238.17,0.0
3292,4239.05,0.0
3293,4240.01,0.0
3294,4241.04,0.0
3295,4242.56,0.0
3296,4243.03,0.0
3297,4244.56,0.0
3298,4245.17,0.0
3299,4246.6,0.0
3300,4248.77,0.0
3301,4249.01,0.0
3302,4250.5,0.0
3303,4251.01,0.0
3304,4252.51,0.0
3305,4254.5,0.0
3306,4256.5,0.0
3307,4258.5,0.0
3308,4259.0,0.0
3309,4260.5,0.0
3310,4264.5,0.0
3311,4265.0,0.0
3312,4266.5,0.0
3313,4267.04,0.0
3314,4269.02,0.0
3315,4270.5,0.0
3316,4272.05,0.0
3317,4273.02,0.0
3318,4274.65,0.0
3319,4275.22,0.0
3320,4276.71,0.0
3321,4277.33,0.0
3322,4278.53,0.0
3323,4279.13,0.0
3324,4280.71,0.0
3325,4282.63,0.0
3326,4284.75,0.0
3327,4286.66,0.0
3328,4287.15,0.0
3329,4288.81,0.0
3330,4289.1,0.0
3331,4290.65,0.0
3332,4292.57,0.0
3333,4293.01,0.0
3334,4294.31,0.0
3335,4295.23,0.0
3336,4296.53,0.0
3337,4297.16,0.0
3338,4298.55,0.0
3339,4300.78,0.0
3340,4301.05,0.0
3341,4302.67,0.0
3342,4303.23,0.0
3343,4304.51,0.0
3344,4305.07,0.0
3345,4306.08,0.0
3346,4307.17,0.0
3347,4307.57,0.0
3348,4309.07,0.0
3349,4310.05,0.0
3350,4311.19,0.0
3351,4312.28,0.0
3352,4313.02,0.0
3353,4314.04,0.0
3354,4315.1,0.0
3355,4316.82,0.0
3356,4317.04,0.0
3357,4318.51,0.0
3358,4319.14,0.0
3359,4319.76,0.0
3360,4321.16,0.0
3361,4322.75,0.0
3362,4323.28,0.0
3363,4324.52,0.0
3364,4325.12,0.0
3365,4326.27,0.0
3366,4327.11,0.0
3367,4328.5,0.0
3368,4329.07,0.0
3369,4330.79,0.0
3370,4331.1,0.0
3371,4333.07,0.0
3372,4334.9,0.0
3373,4335.11,0.0
3374,4336.7,0.0
3375,4337.22,0.0
3376,4338.58,0.0
3377,4339.12,0.0
3378,4340.57,0.0
3379,4341.25,0.0
3380,4342.58,0.0
3381,4343.12,0.0
3382,4344.6,0.0
3383,4345.13,0.0
3384,4346.66,0.0
3385,4347.15,0.0
3386,4348.79,0.0
3387,4349.02,0.0
3388,4350.5,0.0
3389,4352.5,0.0
3390,4353.0,0.0
3391,4354.5,0.0
3392,4355.0,0.0
3393,4356.5,0.0
3394,4358.5,0.0
3395,4359.01,0.0
3396,4360.52,0.0
3397,4361.01,0.0
3398,4362.5,0.0
3399,4364.51,0.0
3400,4365.0,0.0
3401,4366.0,0.0
3402,4367.02,0.0
3403,4368.52,0.0
3404,4369.01,0.0
3405,4370.5,0.0
3406,4371.02,0.0
3407,4372.5,0.0
3408,4373.01,0.0
3409,4374.55,0.0
3410,4376.5,0.0
3411,4377.02,0.0
3412,4378.03,0.0
3413,4380.65,0.0
3414,4381.07,0.0
3415,4382.02,0.0
3416,4384.02,0.0
3417,4385.0,0.0
3418,4386.5,0.0
3419,4387.11,0.0
3420,4388.55,0.0
3421,4390.02,0.0
3422,4391.09,0.0
3423,4392.57,0.0
3424,4393.07,0.0
3425,4394.55,0.0
3426,4395.1,0.0
3427,4396.66,0.0
3428,4397.0,0.0
3429,4398.54,0.0
3430,4400.56,0.0
3431,4401.09,0.0
3432,4402.61,0.0
3433,4403.01,0.0
3434,4404.54,0.0
3435,4405.06,0.0
3436,4406.55,0.0
3437,4407.53,0.0
3438,4409.18,0.0
3439,4410.53,0.0
3440,4411.01,0.0
3441,4412.54,0.0
3442,4413.03,0.0
3443,4414.52,0.0
3444,4415.06,0.0
3445,4417.06,0.0
3446,4418.52,0.0
3447,4419.14,0.0
3448,4420.51,0.0
3449,4421.05,0.0
3450,4422.66,0.0
3451,4423.03,0.0
3452,4424.52,0.0
3453,4426.54,0.0
3454,4427.05,0.0
3455,4428.53,0.0
3456,4429.06,0.0
3457,4430.5,0.0
3458,4431.02,0.0
3459,4432.51,0.0
3460,4433.11,0.0
3461,4434.56,0.0
3462,4435.05,0.0
3463,4436.55,0.0
3464,4437.01,0.0
3465,4438.56,0.0
3466,4440.59,0.0
3467,4441.0,0.0
3468,4442.51,0.0
3469,4443.06,0.0
3470,4444.5,0.0
3471,4445.09,0.0
3472,4446.5,0.0
3473,4447.1,0.0
3474,4448.58,0.0
3475,4449.54,0.0
3476,4451.06,0.0
3477,4452.58,0.0
3478,4453.0,0.0
3479,4454.63,0.0
3480,4455.11,0.0
3481,4456.5,0.0
3482,4457.04,0.0
3483,4458.57,0.0
3484,4460.57,0.0
3485,4461.14,0.0
3486,4462.56,0.0
3487,4463.05,0.0
3488,4464.5,0.0
3489,4465.06,0.0
3490,4466.59,0.0
3491,4467.12,0.0
3492,4468.5,0.0
3493,4469.06,0.0
3494,4470.58,0.0
3495,4471.15,0.0
3496,4472.58,0.0
3497,4473.04,0.0
3498,4474.58,0.0
3499,4476.63,0.0
3500,4477.07,0.0
3501,4478.61,0.0
3502,4479.09,0.0
3503,4480.14,0.0
3504,4481.04,0.0
3505,4482.82,0.0
3506,4483.08,0.0
3507,4484.56,0.0
3508,4485.14,0.0
3509,4486.66,0.0
3510,4487.0,0.0
3511,4488.59,0.0
3512,4490.71,0.0
3513,4492.57,0.0
3514,4493.54,0.0
3515,4495.17,0.0
3516,4496.53,0.0
3517,4497.07,0.0
3518,4498.55,0.0
3519,4499.11,0.0
3520,4500.15,0.0
3521,4501.09,0.0
3522,4502.56,0.0
3523,4503.21,0.0
3524,4504.53,0.0
3525,4505.06,0.0
3526,4506.58,0.0
3527,4508.58,0.0
3528,4509.08,0.0
3529,4510.81,0.0
3530,4511.0,0.0
3531,4512.08,0.0
3532,4513.14,0.0
3533,4514.57,0.0
3534,4515.17,0.0
3535,4516.55,0.0
3536,4517.01,0.0
3537,4518.01,0.0
3538,4519.03,0.0
3539,4520.39,0.0
3540,4521.06,0.0
3541,4522.66,0.0
3542,4523.04,0.0
3543,4524.59,0.0
3544,4525.26,0.0
3545,4526.5,0.0
3546,4527.1,0.0
3547,4528.59,0.0
3548,4529.2,0.0
3549,4530.14,0.0
3550,4531.12,0.0
3551,4532.82,0.0
3552,4533.25,0.0
3553,4534.57,0.0
3554,4535.12,0.0
3555,4536.53,0.0
3556,4537.06,0.0
3557,4538.72,0.0
3558,4539.12,0.0
3559,4540.53,0.0
3560,4541.29,0.0
3561,4542.54,0.0
3562,4543.02,0.0
3563,4544.79,0.0
3564,4546.65,0.0
3565,4547.21,0.0
3566,4548.55,0.0
3567,4550.66,0.0
3568,4552.62,0.0
3569,4553.09,0.0
3570,4554.03,0.0
3571,4556.63,0.0
3572,4557.27,0.0
3573,4558.04,0.0
3574,4559.16,0.0
3575,4560.77,0.0
3576,4562.73,0.0
3577,4564.51,0.0
3578,4566.73,0.0
3579,4567.28,0.0
3580,4568.56,0.0
3581,4569.18,0.0
3582,4570.65,0.0
3583,4571.11,0.0
3584,4572.5,0.0
3585,4574.56,0.0
3586,4575.1,0.0
3587,4576.05,0.0
3588,4577.14,0.0
3589,4578.19,0.0
3590,4579.04,0.0
3591,4580.61,0.0
3592,4581.2,0.0
3593,4582.08,0.0
3594,4583.02,0.0
3595,4584.13,0.0
3596,4585.22,0.0
3597,4586.51,0.0
3598,4588.73,0.0
3599,4589.13,0.0
3600,4590.65,0.0
3601,4591.08,0.0
3602,4592.51,0.0
3603,4594.64,0.0
3604,4595.22,0.0
3605,4596.63,0.0
3606,4597.24,0.0
3607,4598.68,0.0
3608,4599.1,0.0
3609,4600.61,0.0
3610,4601.05,0.0
3611,4602.14,0.0
3612,4603.15,0.0
3613,4604.06,0.0
3614,4605.05,0.0
3615,4606.61,0.0
3616,4608.59,0.0
3617,4610.64,0.0
3618,4611.07,0.0
3619,4612.74,0.0
3620,4613.04,0.0
3621,4614.5,0.0
3622,4616.52,0.0
3623,4617.02,0.0
3624,4618.51,0.0
3625,4619.02,0.0
3626,4620.51,0.0
3627,4621.02,0.0
3628,4622.51,0.0
3629,4623.02,0.0
3630,4624.52,0.0
3631,4625.01,0.0
3632,4626.5,0.0
3633,4628.51,0.0
3634,4629.01,0.0
3635,4630.5,0.0
3636,4631.0,0.0
3637,4632.5,0.0
3638,4633.0,0.0
3639,4634.03,0.0
3640,4635.01,0.0
3641,4636.51,0.0
3642,4637.02,0.0
3643,4638.52,0.0
3644,4639.03,0.0
3645,4640.01,0.0
3646,4641.06,0.0
3647,4642.52,0.0
3648,4643.0,0.0
3649,4644.51,0.0
3650,4646.5,0.0
3651,4647.02,0.0
3652,4648.51,0.0
3653,4649.06,0.0
3654,4650.5,0.0
3655,4652.0,0.0
3656,4654.54,0.0
3657,4655.0,0.0
3658,4656.5,0.0
3659,4658.5,0.0
3660,4659.01,0.0
3661,4660.5,0.0
3662,4661.03,0.0
3663,4662.51,0.0
3664,4663.0,0.0
3665,4664.03,0.0
3666,4666.27,0.0
3667,4667.17,0.0
3668,4668.52,0.0
3669,4669.19,0.0
3670,4670.5,0.0
3671,4672.54,0.0
3672,4674.18,0.0
3673,4675.2,0.0
3674,4676.62,0.0
3675,4678.65,0.0
3676,4679.25,0.0
3677,4680.55,0.0
3678,4681.19,0.0
3679,4682.58,0.0
3680,4683.06,0.0
3681,4684.67,0.0
3682,4685.13,0.0
3683,4686.01,0.0
3684,4687.27,0.0
3685,4688.11,0.0
3686,4689.18,0.0
3687,4690.53,0.0
3688,4691.02,0.0
3689,4692.12,0.0
3690,4693.11,0.0
3691,4694.71,0.0
3692,4696.62,0.0
3693,4697.22,0.0
3694,4698.51,0.0
3695,4699.18,0.0
3696,4700.15,0.0
3697,4701.15,0.0
3698,4702.54,0.0
3699,4703.04,0.0
3700,4704.75,0.0
3701,4705.13,0.0
3702,4706.66,0.0
3703,4707.33,0.0
3704,4708.08,0.0
3705,4710.37,0.0
3706,4711.18,0.0
3707,4712.76,0.0
3708,4713.05,0.0
3709,4714.6,0.0
3710,4715.08,0.0
3711,4716.64,0.0
3712,4717.33,0.0
3713,4718.62,0.0
3714,4719.19,0.0
3715,4720.58,0.0
3716,4721.04,0.0
3717,4722.54,0.0
3718,4723.05,0.0
3719,4724.13,0.0
3720,4725.19,0.0
3721,4727.03,0.0
3722,4728.54,0.0
3723,4730.6,0.0
3724,4731.04,0.0
3725,4732.51,0.0
3726,4733.06,0.0
3727,4734.56,0.0
3728,4735.13,0.0
3729,4736.55,0.0
3730,4738.62,0.0
3731,4739.04,0.0
3732,4740.01,0.0
3733,4741.13,0.0
3734,4742.56,0.0
3735,4743.05,0.0
3736,4744.08,0.0
3737,4745.03,0.0
3738,4746.0,0.0
3739,4748.58,0.0
3740,4749.08,0.0
3741,4750.54,0.0
3742,4751.04,0.0
3743,4752.67,0.0
3744,4754.59,0.0
3745,4756.62,0.0
3746,4757.04,0.0
3747,4758.54,0.0
3748,4759.05,0.0
3749,4759.65,0.0
3750,4761.1,0.0
3751,4762.03,0.0
3752,4764.13,0.0
3753,4765.09,0.0
3754,4766.12,0.0
3755,4767.07,0.0
3756,4768.54,0.0
3757,4769.01,0.0
3758,4770.61,0.0
3759,4771.58,0.0
3760,4773.06,0.0
3761,4774.5,0.0
3762,4776.54,0.0
3763,4777.16,0.0
3764,4778.62,0.0
3765,4779.04,0.0
3766,4780.0,0.0
3767,4781.13,0.0
3768,4782.06,0.0
3769,4783.01,0.0
3770,4784.59,0.0
3771,4786.54,0.0
3772,4787.01,0.0
3773,4788.04,0.0
3774,4790.54,0.0
3775,4792.53,0.0
3776,4793.03,0.0
3777,4794.51,0.0
3778,4795.07,0.0
3779,4796.08,0.0
3780,4797.04,0.0
3781,4798.57,0.0
3782,4799.15,0.0
3783,4800.57,0.0
3784,4801.17,0.0
3785,4802.53,0.0
3786,4803.1,0.0
3787,4804.55,0.0
3788,4805.0,0.0
3789,4806.53,0.0
3790,4807.0,0.0
3791,4808.61,0.0
3792,4809.07,0.0
3793,4809.51,0.0
3794,4811.01,0.0
3795,4812.09,0.0
3796,4813.14,0.0
3797,4814.58,0.0
3798,4815.09,0.0
3799,4816.56,0.0
3800,4817.06,0.0
3801,4818.03,0.0
3802,4820.62,0.0
3803,4821.04,0.0
3804,4822.06,0.0
3805,4824.55,0.0
3806,4825.15,0.0
3807,4825.59,0.0
3808,4828.62,0.0
3809,4829.02,0.0
3810,4830.52,0.0
3811,4831.03,0.0
3812,4832.07,0.0
3813,4833.06,0.0
3814,4834.55,0.0
3815,4835.12,0.0
3816,4836.58,0.0
3817,4838.5,0.0
3818,4839.08,0.0
3819,4840.62,0.0
3820,4841.04,0.0
3821,4842.63,0.0
3822,4843.03,0.0
3823,4844.58,0.0
3824,4847.08,0.0
3825,4847.87,0.0
3826,4849.07,0.0
3827,4850.58,0.0
3828,4851.09,0.0
3829,4852.59,0.0
3830,4854.52,0.0
3831,4855.09,0.0
3832,4856.68,0.0
3833,4857.02,0.0
3834,4858.62,0.0
3835,4859.0,0.0
3836,4860.58,0.0
3837,4861.1,0.0
3838,4862.64,0.0
3839,4863.03,0.0
3840,4864.56,0.0
3841,4865.15,0.0
3842,4866.58,0.0
3843,4868.51,0.0
3844,4869.18,0.0
3845,4870.5,0.0
3846,4871.01,0.0
3847,4872.58,0.0
3848,4873.0,0.0
3849,4874.52,0.0
3850,4875.1,0.0
3851,4876.58,0.0
3852,4877.04,0.0
3853,4878.59,0.0
3854,4879.17,0.0
3855,4880.5,0.0
3856,4881.1,0.0
3857,4882.5,0.0
3858,4883.04,0.0
3859,4884.03,0.0
3860,4885.02,0.0
3861,4886.63,0.0
3862,4887.01,0.0
3863,4888.14,0.0
3864,4889.08,0.0
3865,4890.08,0.0
3866,4891.09,0.0
3867,4893.0,0.0
3868,4894.53,0.0
3869,4895.0,0.0
3870,4901.0,0.0
3871,4904.59,0.0
3872,4906.53,0.0
3873,4908.51,0.0
3874,4909.09,0.0
3875,4910.51,0.0
3876,4911.07,0.0
3877,4912.59,0.0
3878,4913.09,0.0
3879,4914.61,0.0
3880,4915.0,0.0
3881,4916.55,0.0
3882,4917.09,0.0
3883,4918.06,0.0
3884,4919.01,0.0
3885,4921.08,0.0
3886,4922.03,0.0
3887,4923.06,0.0
3888,4924.54,0.0
3889,4926.56,0.0
3890,4928.53,0.0
3891,4929.02,0.0
3892,4930.07,0.0
3893,4931.0,0.0
3894,4932.5,0.0
3895,4933.04,0.0
3896,4934.01,0.0
3897,4935.07,0.0
3898,4936.61,0.0
3899,4937.1,0.0
3900,4938.5,0.0
3901,4939.54,0.0
3902,4941.0,0.0
3903,4942.51,0.0
3904,4943.02,0.0
3905,4944.57,0.0
3906,4945.0,0.0
3907,4946.52,0.0
3908,4948.58,0.0
3909,4949.02,0.0
3910,4950.51,0.0
3911,4951.0,0.0
3912,4952.53,0.0
3913,4954.55,0.0
3914,4955.0,0.0
3915,4956.51,0.0
3916,4957.02,0.0
3917,4959.07,0.0
3918,4960.52,0.0
3919,4961.04,0.0
3920,4961.52,0.0
3921,4964.53,0.0
3922,4966.55,0.0
3923,4968.53,0.0
3924,4969.0,0.0
3925,4970.53,0.0
3926,4971.01,0.0
3927,4972.54,0.0
3928,4973.02,0.0
3929,4973.55,0.0
3930,4975.01,0.0
3931,4975.51,0.0
3932,4977.02,0.0
3933,4978.0,0.0
3934,4980.59,0.0
3935,4981.07,0.0
3936,4982.04,0.0
3937,4984.51,0.0
3938,4985.0,0.0
3939,4986.58,0.0
3940,4987.17,0.0
3941,4988.57,0.0
3942,4989.14,0.0
3943,4990.59,0.0
3944,4992.21,0.0
3945,4994.5,0.0
3946,4998.06,0.0
3947,4999.31,0.0
3948,5000.52,0.0
3949,5001.08,0.0
3950,5004.53,0.0
3951,5005.06,0.0
3952,5006.05,0.0
3953,5008.06,0.0
3954,5010.55,0.0
3955,5011.07,0.0
3956,5012.77,0.0
3957,5014.71,0.0
3958,5015.25,0.0
3959,5016.5,0.0
3960,5017.09,0.0
3961,5020.54,0.0
3962,5021.04,0.0
3963,5022.02,0.0
3964,5023.11,0.0
3965,5024.51,0.0
3966,5025.0,0.0
3967,5025.5,0.0
3968,5027.0,0.0
3969,5028.51,0.0
3970,5029.02,0.0
3971,5029.51,0.0
3972,5031.02,0.0
3973,5032.54,0.0
3974,5033.0,0.0
3975,5034.5,0.0
3976,5036.0,0.0
3977,5037.01,0.0
3978,5038.52,0.0
3979,5039.02,0.0
3980,5040.5,0.0
3981,5042.69,0.0
3982,5043.0,0.0
3983,5044.52,0.0
3984,5045.03,0.0
3985,5047.09,0.0
3986,5049.23,0.0
3987,5050.76,0.0
3988,5051.08,0.0
3989,5051.69,0.0
3990,5053.15,0.0
3991,5054.6,0.0
3992,5055.26,0.0
3993,5056.58,0.0
3994,5057.47,0.0
3995,5058.62,0.0
3996,5059.26,0.0
3997,5060.37,0.0
3998,5061.13,0.0
3999,5062.42,0.0
4000,5064.2,0.0
4001,5065.53,0.0
4002,5066.5,0.0
4003,5068.96,0.0
4004,5070.67,0.0
4005,5071.21,0.0
4006,5072.57,0.0
4007,5075.25,0.0
4008,5076.06,0.0
4009,5077.83,0.0
4010,5080.69,0.0
4011,5081.24,0.0
4012,5082.9,0.0
4013,5083.03,0.0
4014,5084.74,0.0
4015,5085.39,0.0
4016,5086.56,0.0
4017,5088.64,0.0
4018,5090.74,0.0
4019,5091.0,0.0
4020,5092.91,0.0
4021,5093.26,0.0
4022,5094.67,0.0
4023,5095.06,0.0
4024,5096.38,0.0
4025,5098.62,0.0
4026,5100.88,0.0
4027,5101.09,0.0
4028,5102.66,0.0
4029,5103.18,0.0
4030,5104.99,0.0
4031,5105.29,0.0
4032,5106.57,0.0
4033,5108.65,0.0
4034,5109.17,0.0
4035,5110.12,0.0
4036,5112.1,0.0
4037,5113.08,0.0
4038,5114.78,0.0
4039,5115.16,0.0
4040,5116.33,0.0
4041,5118.64,0.0
4042,5120.16,0.0
4043,5122.08,0.0
4044,5123.0,0.0
4045,5124.51,0.0
4046,5126.07,0.0
4047,5127.02,0.0
4048,5128.98,0.0
4049,5130.65,0.0
4050,5131.06,0.0
4051,5132.61,0.0
4052,5134.59,0.0
4053,5135.14,0.0
4054,5136.8,0.0
4055,5138.54,0.0
4056,5140.57,0.0
4057,5142.75,0.0
4058,5144.53,0.0
4059,5145.46,0.0
4060,5146.91,0.0
4061,5147.03,0.0
4062,5148.33,0.0
4063,5150.01,0.0
4064,5152.81,0.0
4065,5153.15,0.0
4066,5154.61,0.0
4067,5155.1,0.0
4068,5156.68,0.0
4069,5157.08,0.0
4070,5158.12,0.0
4071,5159.11,0.0
4072,5160.02,0.0
4073,5161.21,0.0
4074,5164.52,0.0
4075,5165.16,0.0
4076,5166.81,0.0
4077,5167.01,0.0
4078,5168.03,0.0
4079,5170.69,0.0
4080,5172.67,0.0
4081,5173.23,0.0
4082,5174.6,0.0
4083,5175.03,0.0
4084,5176.52,0.0
4085,5178.39,0.0
4086,5179.01,0.0
4087,5180.59,0.0
4088,5181.01,0.0
4089,5182.65,0.0
4090,5184.57,0.0
4091,5186.74,0.0
4092,5187.28,0.0
4093,5188.6,0.0
4094,5189.27,0.0
4095,5190.14,0.0
4096,5191.01,0.0
4097,5192.72,0.0
4098,5194.57,0.0
4099,5196.18,0.0
4100,5197.77,0.0
4101,5200.55,0.0
4102,5201.27,0.0
4103,5203.57,0.0
4104,5205.27,0.0
4105,5206.78,0.0
4106,5207.13,0.0
4107,5208.43,0.0
4108,5209.17,0.0
4109,5210.8,0.0
4110,5211.2,0.0
4111,5211.57,0.0
4112,5213.05,0.0
4113,5215.74,0.0
4114,5217.02,0.0
4115,5217.82,0.0
4116,5219.15,0.0
4117,5220.61,0.0
4118,5222.49,0.0
4119,5223.19,0.0
4120,5224.72,0.0
4121,5226.22,0.0
4122,5228.81,0.0
4123,5229.32,0.0
4124,5230.79,0.0
4125,5232.71,0.0
4126,5233.08,0.0
4127,5234.7,0.0
4128,5235.31,0.0
4129,5236.58,0.0
4130,5237.21,0.0
4131,5238.65,0.0
4132,5239.13,0.0
4133,5240.38,0.0
4134,5244.0,0.0
4135,5245.25,0.0
4136,5246.59,0.0
4137,5248.35,0.0
4138,5248.82,0.0
4139,5250.62,0.0
4140,5251.19,0.0
4141,5252.8,0.0
4142,5253.43,0.0
4143,5254.15,0.0
4144,5255.14,0.0
4145,5258.53,0.0
4146,5260.73,0.0
4147,5262.19,0.0
4148,5263.36,0.0
4149,5264.21,0.0
4150,5266.6,0.0
4151,5267.28,0.0
4152,5268.83,0.0
4153,5269.27,0.0
4154,5271.1,0.0
4155,5272.66,0.0
4156,5273.19,0.0
4157,5274.71,0.0
4158,5275.14,0.0
4159,5276.71,0.0
4160,5277.38,0.0
4161,5278.9,0.0
4162,5279.11,0.0
4163,5280.67,0.0
4164,5281.43,0.0
4165,5285.03,0.0
4166,5286.55,0.0
4167,5288.29,0.0
4168,5288.82,0.0
4169,5290.52,0.0
4170,5291.19,0.0
4171,5292.7,0.0
4172,5294.54,0.0
4173,5295.15,0.0
4174,5296.03,0.0
4175,5298.82,0.0
4176,5299.01,0.0
4177,5300.09,0.0
4178,5301.25,0.0
4179,5302.44,0.0
4180,5303.13,0.0
4181,5304.79,0.0
4182,5305.28,0.0
4183,5306.62,0.0
4184,5307.07,0.0
4185,5308.04,0.0
4186,5309.07,0.0
4187,5310.16,0.0
4188,5311.24,0.0
4189,5312.5,0.0
4190,5313.33,0.0
4191,5314.26,0.0
4192,5316.0,0.0
4193,5317.53,0.0
4194,5319.03,0.0
4195,5320.57,0.0
4196,5321.51,0.0
4197,5323.01,0.0
4198,5324.05,0.0
4199,5325.0,0.0
4200,5326.51,0.0
4201,5328.07,0.0
4202,5330.52,0.0
4203,5331.02,0.0
4204,5332.61,0.0
4205,5334.53,0.0
4206,5335.02,0.0
4207,5336.52,0.0
4208,5338.01,0.0
4209,5339.0,0.0
4210,5341.17,0.0
4211,5343.13,0.0
4212,5344.67,0.0
4213,5346.55,0.0
4214,5347.12,0.0
4215,5348.77,0.0
4216,5349.27,0.0
4217,5349.5,0.0
4218,5351.56,0.0
4219,5354.17,0.0
4220,5355.13,0.0
4221,5356.1,0.0
4222,5358.63,0.0
4223,5360.72,0.0
4224,5361.16,0.0
4225,5362.8,0.0
4226,5364.62,0.0
4227,5365.14,0.0
4228,5366.73,0.0
4229,5368.22,0.0
4230,5370.19,0.0
4231,5371.2,0.0
4232,5372.58,0.0
4233,5374.02,0.0
4234,5375.18,0.0
4235,5376.72,0.0
4236,5377.43,0.0
4237,5378.19,0.0
4238,5380.7,0.0
4239,5382.22,0.0
4240,5384.88,0.0
4241,5386.94,0.0
4242,5387.38,0.0
4243,5388.28,0.0
4244,5390.71,0.0
4245,5391.15,0.0
4246,5391.77,0.0
4247,5393.18,0.0
4248,5394.53,0.0
4249,5396.07,0.0
4250,5397.25,0.0
4251,5397.71,0.0
4252,5399.1,0.0
4253,5400.75,0.0
4254,5402.07,0.0
4255,5403.33,0.0
4256,5403.56,0.0
4257,5405.12,0.0
4258,5406.7,0.0
4259,5407.23,0.0
4260,5408.63,0.0
4261,5410.69,0.0
4262,5411.3,0.0
4263,5412.66,0.0
4264,5414.11,0.0
4265,5416.6,0.0
4266,5418.73,0.0
4267,5422.58,0.0
4268,5423.33,0.0
4269,5424.68,0.0
4270,5425.35,0.0
4271,5426.58,0.0
4272,5427.42,0.0
4273,5428.51,0.0
4274,5429.0,0.0
4275,5430.5,0.0
4276,5431.19,0.0
4277,5432.15,0.0
4278,5433.23,0.0
4279,5433.63,0.0
4280,5435.17,0.0
4281,5435.59,0.0
4282,5437.04,0.0
4283,5438.59,0.0
4284,5440.61,0.0
4285,5441.03,0.0
4286,5442.58,0.0
4287,5444.54,0.0
4288,5445.16,0.0
4289,5446.64,0.0
4290,5448.62,0.0
4291,5450.61,0.0
4292,5452.5,0.0
4293,5453.18,0.0
4294,5454.0,0.0
4295,5456.05,0.0
4296,5457.1,0.0
4297,5458.58,0.0
4298,5459.38,0.0
4299,5460.66,0.0
4300,5461.26,0.0
4301,5462.54,0.0
4302,5464.74,0.0
4303,5465.09,0.0
4304,5466.12,0.0
4305,5467.22,0.0
4306,5467.63,0.0
4307,5469.12,0.0
4308,5470.63,0.0
4309,5471.01,0.0
4310,5471.56,0.0
4311,5473.29,0.0
4312,5474.24,0.0
4313,5475.06,0.0
4314,5476.58,0.0
4315,5478.77,0.0
4316,5479.03,0.0
4317,5480.58,0.0
4318,5481.15,0.0
4319,5482.62,0.0
4320,5483.11,0.0
4321,5484.07,0.0
4322,5485.06,0.0
4323,5486.59,0.0
4324,5487.08,0.0
4325,5488.6,0.0
4326,5490.18,0.0
4327,5491.09,0.0
4328,5492.66,0.0
4329,5493.1,0.0
4330,5494.68,0.0
4331,5496.11,0.0
4332,5497.1,0.0
4333,5498.71,0.0
4334,5499.15,0.0
4335,5500.73,0.0
4336,5501.0,0.0
4337,5502.04,0.0
4338,5503.12,0.0
4339,5503.56,0.0
4340,5506.63,0.0
4341,5507.27,0.0
4342,5508.54,0.0
4343,5510.67,0.0
4344,5511.32,0.0
4345,5512.1,0.0
4346,5514.54,0.0
4347,5516.55,0.0
4348,5517.17,0.0
4349,5518.51,0.0
4350,5519.0,0.0
4351,5519.59,0.0
4352,5522.61,0.0
4353,5523.05,0.0
4354,5524.6,0.0
4355,5525.01,0.0
4356,5526.66,0.0
4357,5527.11,0.0
4358,5528.85,0.0
4359,5529.06,0.0
4360,5530.54,0.0
4361,5532.82,0.0
4362,5533.12,0.0
4363,5534.63,0.0
4364,5535.1,0.0
4365,5536.5,0.0
4366,5537.23,0.0
4367,5538.65,0.0
4368,5539.13,0.0
4369,5540.64,0.0
4370,5542.87,0.0
4371,5544.64,0.0
4372,5545.03,0.0
4373,5546.59,0.0
4374,5547.1,0.0
4375,5547.81,0.0
4376,5550.5,0.0
4377,5551.73,0.0
4378,5553.21,0.0
4379,5554.0,0.0
4380,5555.05,0.0
4381,5556.75,0.0
4382,5558.7,0.0
4383,5559.08,0.0
4384,5560.67,0.0
4385,5561.15,0.0
4386,5564.5,0.0
4387,5566.57,0.0
4388,5567.07,0.0
4389,5568.52,0.0
4390,5569.09,0.0
4391,5570.54,0.0
4392,5571.08,0.0
4393,5572.73,0.0
4394,5573.02,0.0
4395,5574.58,0.0
4396,5576.61,0.0
4397,5577.28,0.0
4398,5578.72,0.0
4399,5581.0,0.0
4400,5582.7,0.0
4401,5583.0,0.0
4402,5583.68,0.0
4403,5585.05,0.0
4404,5586.5,0.0
4405,5587.11,0.0
4406,5588.06,0.0
4407,5590.67,0.0
4408,5591.0,0.0
4409,5592.52,0.0
4410,5594.18,0.0
4411,5595.08,0.0
4412,5596.8,0.0
4413,5598.01,0.0
4414,5599.13,0.0
4415,5600.11,0.0
4416,5601.17,0.0
4417,5603.03,0.0
4418,5604.51,0.0
4419,5606.54,0.0
4420,5607.05,0.0
4421,5608.59,0.0
4422,5609.23,0.0
4423,5610.61,0.0
4424,5611.23,0.0
4425,5612.21,0.0
4426,5614.8,0.0
4427,5615.07,0.0
4428,5616.39,0.0
4429,5620.02,0.0
4430,5621.68,0.0
4431,5623.12,0.0
4432,5624.01,0.0
4433,5625.04,0.0
4434,5626.51,0.0
4435,5628.405,0.0
4436,5629.11,0.0
4437,5630.83,0.0
4438,5631.19,0.0
4439,5632.64,0.0
4440,5634.62,0.0
4441,5635.33,0.0
4442,5636.21,0.0
4443,5637.01,0.0
4444,5638.02,0.0
4445,5639.04,0.0
4446,5640.51,0.0
4447,5642.52,0.0
4448,5643.38,0.0
4449,5643.76,0.0
4450,5645.03,0.0
4451,5646.07,0.0
4452,5647.16,0.0
4453,5648.82,0.0
4454,5650.15,0.0
4455,5652.53,0.0
4456,5653.12,0.0
4457,5654.01,0.0
4458,5655.25,0.0
4459,5656.59,0.0
4460,5657.52,0.0
4461,5659.18,0.0
4462,5660.55,0.0
4463,5662.57,0.0
4464,5664.5,0.0
4465,5667.59,0.0
4466,5669.19,0.0
4467,5670.55,0.0
4468,5672.69,0.0
4469,5674.61,0.0
4470,5675.17,0.0
4471,5675.57,0.0
4472,5678.76,0.0
4473,5680.51,0.0
4474,5682.64,0.0
4475,5683.61,0.0
4476,5686.71,0.0
4477,5688.66,0.0
4478,5689.06,0.0
4479,5691.3,0.0
4480,5691.5,0.0
4481,5693.56,0.0
4482,5695.09,0.0
4483,5696.67,0.0
4484,5697.14,0.0
4485,5698.67,0.0
4486,5699.01,0.0
4487,5700.57,0.0
4488,5702.71,0.0
4489,5704.65,0.0
4490,5706.68,0.0
4491,5707.3,0.0
4492,5708.58,0.0
4493,5709.05,0.0
4494,5710.68,0.0
4495,5712.04,0.0
4496,5714.63,0.0
4497,5716.54,0.0
4498,5718.57,0.0
4499,5719.1,0.0
4500,5720.58,0.0
4501,5722.64,0.0
4502,5723.31,0.0
4503,5724.02,0.0
4504,5726.5,0.0
4505,5728.54,0.0
4506,5730.93,0.0
4507,5731.18,0.0
4508,5732.33,0.0
4509,5734.6,0.0
4510,5736.56,0.0
4511,5738.71,0.0
4512,5740.64,0.0
4513,5742.11,0.0
4514,5744.67,0.0
4515,5745.17,0.0
4516,5746.03,0.0
4517,5747.31,0.0
4518,5748.0,0.0
4519,5750.5,0.0
4520,5751.36,0.0
4521,5752.0,0.0
4522,5753.07,0.0
4523,5754.63,0.0
4524,5755.11,0.0
4525,5756.6,0.0
4526,5758.59,0.0
4527,5759.1,0.0
4528,5759.69,0.0
4529,5762.73,0.0
4530,5766.7,0.0
4531,5767.33,0.0
4532,5767.6,0.0
4533,5769.07,0.0
4534,5771.22,0.0
4535,5771.6,0.0
4536,5774.57,0.0
4537,5775.02,0.0
4538,5776.24,0.0
4539,5778.83,0.0
4540,5779.17,0.0
4541,5780.61,0.0
4542,5781.12,0.0
4543,5782.01,0.0
4544,5783.14,0.0
4545,5784.6,0.0
4546,5785.22,0.0
4547,5787.11,0.0
4548,5788.03,0.0
4549,5790.52,0.0
4550,5792.07,0.0
4551,5793.04,0.0
4552,5794.56,0.0
4553,5796.67,0.0
4554,5797.7,0.0
4555,5799.08,0.0
4556,5799.65,0.0
4557,5802.6,0.0
4558,5803.09,0.0
4559,5803.56,0.0
4560,5806.59,0.0
4561,5807.19,0.0
4562,5808.53,0.0
4563,5810.53,0.0
4564,5812.56,0.0
4565,5814.61,0.0
4566,5815.06,0.0
4567,5816.65,0.0
4568,5817.03,0.0
4569,5819.18,0.0
4570,5820.62,0.0
4571,5822.61,0.0
4572,5824.6,0.0
4573,5826.07,0.0
4574,5828.55,0.0
4575,5829.03,0.0
4576,5830.63,0.0
4577,5832.52,0.0
4578,5834.58,0.0
4579,5835.24,0.0
4580,5836.74,0.0
4581,5837.06,0.0
4582,5838.62,0.0
4583,5840.79,0.0
4584,5841.34,0.0
4585,5842.59,0.0
4586,5843.06,0.0
4587,5844.58,0.0
4588,5846.55,0.0
4589,5847.04,0.0
4590,5848.68,0.0
4591,5849.09,0.0
4592,5850.67,0.0
4593,5851.06,0.0
4594,5852.6,0.0
4595,5853.02,0.0
4596,5854.75,0.0
4597,5856.75,0.0
4598,5858.66,0.0
4599,5861.2,0.0
4600,5862.77,0.0
4601,5863.17,0.0
4602,5864.01,0.0
4603,5865.01,0.0
4604,5866.72,0.0
4605,5867.11,0.0
4606,5868.66,0.0
4607,5870.62,0.0
4608,5873.03,0.0
4609,5874.11,0.0
4610,5875.11,0.0
4611,5876.66,0.0
4612,5877.14,0.0
4613,5878.63,0.0
4614,5879.0,0.0
4615,5880.56,0.0
4616,5882.57,0.0
4617,5884.09,0.0
4618,5886.12,0.0
4619,5887.03,0.0
4620,5888.1,0.0
4621,5889.04,0.0
4622,5890.12,0.0
4623,5891.13,0.0
4624,5892.58,0.0
4625,5894.53,0.0
4626,5895.04,0.0
4627,5896.54,0.0
4628,5898.6,0.0
4629,5899.1,0.0
4630,5900.51,0.0
4631,5901.21,0.0
4632,5901.6,0.0
4633,5903.05,0.0
4634,5903.57,0.0
4635,5906.62,0.0
4636,5908.73,0.0
4637,5909.03,0.0
4638,5909.75,0.0
4639,5911.04,0.0
4640,5912.62,0.0
4641,5915.03,0.0
4642,5916.58,0.0
4643,5917.13,0.0
4644,5918.1,0.0
4645,5920.11,0.0
4646,5921.07,0.0
4647,5922.1,0.0
4648,5923.12,0.0
4649,5924.1,0.0
4650,5925.0,0.0
4651,5926.54,0.0
4652,5927.04,0.0
4653,5929.27,0.0
4654,5930.53,0.0
4655,5931.01,0.0
4656,5931.5,0.0
4657,5934.07,0.0
4658,5935.15,0.0
4659,5936.61,0.0
4660,5937.11,0.0
4661,5937.57,0.0
4662,5940.06,0.0
4663,5942.56,0.0
4664,5943.06,0.0
4665,5944.5,0.0
4666,5945.31,0.0
4667,5946.02,0.0
4668,5947.28,0.0
4669,5947.6,0.0
4670,5949.08,0.0
4671,5950.51,0.0
4672,5952.68,0.0
4673,5954.12,0.0
4674,5955.02,0.0
4675,5956.62,0.0
4676,5958.01,0.0
4677,5959.23,0.0
4678,5960.08,0.0
4679,5962.51,0.0
4680,5963.04,0.0
4681,5965.06,0.0
4682,5966.18,0.0
4683,5968.58,0.0
4684,5969.19,0.0
4685,5970.54,0.0
4686,5971.05,0.0
4687,5972.61,0.0
4688,5974.01,0.0
4689,5975.04,0.0
4690,5975.55,0.0
4691,5977.1,0.0
4692,5978.5,0.0
4693,5979.04,0.0
4694,5980.51,0.0
4695,5982.53,0.0
4696,5984.51,0.0
4697,5985.09,0.0
4698,5986.01,0.0
4699,5987.07,0.0
4700,5988.58,0.0
4701,5989.11,0.0
4702,5990.64,0.0
4703,5991.01,0.0
4704,5992.04,0.0
4705,5994.1,0.0
4706,5996.59,0.0
4707,5997.08,0.0
4708,5998.1,0.0
4709,6002.58,0.0
4710,6003.22,0.0
4711,6004.65,0.0
4712,6006.67,0.0
4713,6007.22,0.0
4714,6008.64,0.0
4715,6010.59,0.0
4716,6012.56,0.0
4717,6014.57,0.0
4718,6018.01,0.0
4719,6021.02,0.0
4720,6022.53,0.0
4721,6024.02,0.0
4722,6025.11,0.0
4723,6026.12,0.0
4724,6028.15,0.0
4725,6030.66,0.0
4726,6031.58,0.0
4727,6034.53,0.0
4728,6036.59,0.0
4729,6037.08,0.0
4730,6038.53,0.0
4731,6039.1,0.0
4732,6040.09,0.0
4733,6041.07,0.0
4734,6042.5,0.0
4735,6044.7,0.0
4736,6045.02,0.0
4737,6046.13,0.0
4738,6048.2,0.0
4739,6049.59,0.0
4740,6051.12,0.0
4741,6052.57,0.0
4742,6053.08,0.0
4743,6054.55,0.0
4744,6057.07,0.0
4745,6058.77,0.0
4746,6060.56,0.0
4747,6062.34,0.0
4748,6063.18,0.0
4749,6064.41,0.0
4750,6065.25,0.0
4751,6066.87,0.0
4752,6068.69,0.0
4753,6069.19,0.0
4754,6070.15,0.0
4755,6071.04,0.0
4756,6072.55,0.0
4757,6073.35,0.0
4758,6074.69,0.0
4759,6075.09,0.0
4760,6076.12,0.0
4761,6077.14,0.0
4762,6078.6,0.0
4763,6079.09,0.0
4764,6081.08,0.0
4765,6082.5,0.0
4766,6083.24,0.0
4767,6084.6,0.0
4768,6085.21,0.0
4769,6086.51,0.0
4770,6088.61,0.0
4771,6089.0,0.0
4772,6090.16,0.0
4773,6091.15,0.0
4774,6091.68,0.0
4775,6093.27,0.0
4776,6094.7,0.0
4777,6096.88,0.0
4778,6097.06,0.0
4779,6098.63,0.0
4780,6099.0,0.0
4781,6100.5,0.0
4782,6101.09,0.0
4783,6102.3,0.0
4784,6104.64,0.0
4785,6105.25,0.0
4786,6106.65,0.0
4787,6108.3,0.0
4788,6109.17,0.0
4789,6110.28,0.0
4790,6111.02,0.0
4791,6112.54,0.0
4792,6113.0,0.0
4793,6114.3,0.0
4794,6115.14,0.0
4795,6116.83,0.0
4796,6118.62,0.0
4797,6119.19,0.0
4798,6120.8,0.0
4799,6121.0,0.0
4800,6122.36,0.0
4801,6123.06,0.0
4802,6124.61,0.0
4803,6125.16,0.0
4804,6126.27,0.0
4805,6127.14,0.0
4806,6128.14,0.0
4807,6129.05,0.0
4808,6130.54,0.0
4809,6131.2,0.0
4810,6131.54,0.0
4811,6133.19,0.0
4812,6134.11,0.0
4813,6136.57,0.0
4814,6138.6,0.0
4815,6139.12,0.0
4816,6140.5,0.0
4817,6142.19,0.0
4818,6143.01,0.0
4819,6144.58,0.0
4820,6146.03,0.0
4821,6148.64,0.0
4822,6149.15,0.0
4823,6150.62,0.0
4824,6151.21,0.0
4825,6152.55,0.0
4826,6154.56,0.0
4827,6155.07,0.0
4828,6156.63,0.0
4829,6157.12,0.0
4830,6158.6,0.0
4831,6159.07,0.0
4832,6160.53,0.0
4833,6162.58,0.0
4834,6163.09,0.0
4835,6164.5,0.0
4836,6165.03,0.0
4837,6166.54,0.0
4838,6167.09,0.0
4839,6168.7,0.0
4840,6170.52,0.0
4841,6171.11,0.0
4842,6172.52,0.0
4843,6174.51,0.0
4844,6175.02,0.0
4845,6176.02,0.0
4846,6178.65,0.0
4847,6179.12,0.0
4848,6180.53,0.0
4849,6181.03,0.0
4850,6182.63,0.0
4851,6183.06,0.0
4852,6184.67,0.0
4853,6185.07,0.0
4854,6186.69,0.0
4855,6187.16,0.0
4856,6188.53,0.0
4857,6189.06,0.0
4858,6190.54,0.0
4859,6191.21,0.0
4860,6191.67,0.0
4861,6193.03,0.0
4862,6196.52,0.0
4863,6197.16,0.0
4864,6199.21,0.0
4865,6200.25,0.0
4866,6201.15,0.0
4867,6202.65,0.0
4868,6203.21,0.0
4869,6204.82,0.0
4870,6205.04,0.0
4871,6205.75,0.0
4872,6207.16,0.0
4873,6209.07,0.0
4874,6210.54,0.0
4875,6211.17,0.0
4876,6212.72,0.0
4877,6213.32,0.0
4878,6214.74,0.0
4879,6215.36,0.0
4880,6216.11,0.0
4881,6217.0,0.0
4882,6217.75,0.0
4883,6219.18,0.0
4884,6220.53,0.0
4885,6221.34,0.0
4886,6222.7,0.0
4887,6223.21,0.0
4888,6224.63,0.0
4889,6226.32,0.0
4890,6228.63,0.0
4891,6229.21,0.0
4892,6230.75,0.0
4893,6231.17,0.0
4894,6232.19,0.0
4895,6234.74,0.0
4896,6235.79,0.0
4897,6237.07,0.0
4898,6238.04,0.0
4899,6240.12,0.0
4900,6241.03,0.0
4901,6242.53,0.0
4902,6244.6,0.0
4903,6246.58,0.0
4904,6247.0,0.0
4905,6248.04,0.0
4906,6249.04,0.0
4907,6250.54,0.0
4908,6251.06,0.0
4909,6253.09,0.0
4910,6255.0,0.0
4911,6256.61,0.0
4912,6257.06,0.0
4913,6258.01,0.0
4914,6259.03,0.0
4915,6260.13,0.0
4916,6261.11,0.0
4917,6262.57,0.0
4918,6263.12,0.0
4919,6264.63,0.0
4920,6265.05,0.0
4921,6266.56,0.0
4922,6268.62,0.0
4923,6269.21,0.0
4924,6270.1,0.0
4925,6271.12,0.0
4926,6272.53,0.0
4927,6273.15,0.0
4928,6274.59,0.0
4929,6275.12,0.0
4930,6276.56,0.0
4931,6278.02,0.0
4932,6279.24,0.0
4933,6280.73,0.0
4934,6281.25,0.0
4935,6282.85,0.0
4936,6284.54,0.0
4937,6286.83,0.0
4938,6287.28,0.0
4939,6289.2,0.0
4940,6290.05,0.0
4941,6291.01,0.0
4942,6291.58,0.0
4943,6293.06,0.0
4944,6293.56,0.0
4945,6296.06,0.0
4946,6298.61,0.0
4947,6299.01,0.0
4948,6299.62,0.0
4949,6302.25,0.0
4950,6303.66,0.0
4951,6305.13,0.0
4952,6306.58,0.0
4953,6307.24,0.0
4954,6308.58,0.0
4955,6309.11,0.0
4956,6310.1,0.0
4957,6312.69,0.0
4958,6313.0,0.0
4959,6314.78,0.0
4960,6315.22,0.0
4961,6316.04,0.0
4962,6317.11,0.0
4963,6318.03,0.0
4964,6320.51,0.0
4965,6322.05,0.0
4966,6323.1,0.0
4967,6324.05,0.0
4968,6326.64,0.0
4969,6328.52,0.0
4970,6329.03,0.0
4971,6330.74,0.0
4972,6331.02,0.0
4973,6332.64,0.0
4974,6333.28,0.0
4975,6336.54,0.0
4976,6337.34,0.0
4977,6338.0,0.0
4978,6339.29,0.0
4979,6342.69,0.0
4980,6343.15,0.0
4981,6344.57,0.0
4982,6345.19,0.0
4983,6346.01,0.0
4984,6348.58,0.0
4985,6350.01,0.0
4986,6351.01,0.0
4987,6352.28,0.0
4988,6354.69,0.0
4989,6355.16,0.0
4990,6356.67,0.0
4991,6358.14,0.0
4992,6359.06,0.0
4993,6360.1,0.0
4994,6362.17,0.0
4995,6363.19,0.0
4996,6364.64,0.0
4997,6365.03,0.0
4998,6365.62,0.0
4999,6367.18,0.0
5000,6369.25,0.0
5001,6370.52,0.0
5002,6372.21,0.0
5003,6373.25,0.0
5004,6374.51,0.0
5005,6376.62,0.0
5006,6378.76,0.0
5007,6379.1,0.0
5008,6380.7,0.0
5009,6382.64,0.0
5010,6384.51,0.0
5011,6388.16,0.0
5012,6389.18,0.0
5013,6389.75,0.0
5014,6391.0,0.0
5015,6392.75,0.0
5016,6393.14,0.0
5017,6394.07,0.0
5018,6396.65,0.0
5019,6398.61,0.0
5020,6400.53,0.0
5021,6401.02,0.0
5022,6402.09,0.0
5023,6403.2,0.0
5024,6404.61,0.0
5025,6407.04,0.0
5026,6408.03,0.0
5027,6410.74,0.0
5028,6412.66,0.0
5029,6413.0,0.0
5030,6414.15,0.0
5031,6415.05,0.0
5032,6416.52,0.0
5033,6417.08,0.0
5034,6418.65,0.0
5035,6419.02,0.0
5036,6423.07,0.0
5037,6424.61,0.0
5038,6425.16,0.0
5039,6426.55,0.0
5040,6428.65,0.0
5041,6429.19,0.0
5042,6430.58,0.0
5043,6431.02,0.0
5044,6431.58,0.0
5045,6435.25,0.0
5046,6436.5,0.0
5047,6438.24,0.0
5048,6440.57,0.0
5049,6441.01,0.0
5050,6442.03,0.0
5051,6443.09,0.0
5052,6444.71,0.0
5053,6445.0,0.0
5054,6446.75,0.0
5055,6448.55,0.0
5056,6450.5,0.0
5057,6452.67,0.0
5058,6453.17,0.0
5059,6454.63,0.0
5060,6456.5,0.0
5061,6458.16,0.0
5062,6459.06,0.0
5063,6460.0,0.0
5064,6461.02,0.0
5065,6462.62,0.0
5066,6463.19,0.0
5067,6464.09,0.0
5068,6465.57,0.0
5069,6468.51,0.0
5070,6469.09,0.0
5071,6470.11,0.0
5072,6471.05,0.0
5073,6472.57,0.0
5074,6473.07,0.0
5075,6473.5,0.0
5076,6475.06,0.0
5077,6475.51,0.0
5078,6478.52,0.0
5079,6479.04,0.0
5080,6482.56,0.0
5081,6483.12,0.0
5082,6484.14,0.0
5083,6485.04,0.0
5084,6486.58,0.0
5085,6487.0,0.0
5086,6488.71,0.0
5087,6490.52,0.0
5088,6492.5,0.0
5089,6494.07,0.0
5090,6496.05,0.0
5091,6497.0,0.0
5092,6499.03,0.0
5093,6500.57,0.0
5094,6501.02,0.0
5095,6502.09,0.0
5096,6503.5,0.0
5097,6505.0,0.0
5098,6506.56,0.0
5099,6507.11,0.0
5100,6508.53,0.0
5101,6509.0,0.0
5102,6510.53,0.0
5103,6511.1,0.0
5104,6512.23,0.0
5105,6513.07,0.0
5106,6514.7,0.0
5107,6515.07,0.0
5108,6516.64,0.0
5109,6518.51,0.0
5110,6520.01,0.0
5111,6521.18,0.0
5112,6522.07,0.0
5113,6523.05,0.0
5114,6524.51,0.0
5115,6525.1,0.0
5116,6526.6,0.0
5117,6527.07,0.0
5118,6528.72,0.0
5119,6529.27,0.0
5120,6530.0,0.0
5121,6531.01,0.0
5122,6532.5,0.0
5123,6533.0,0.0
5124,6534.56,0.0
5125,6535.09,0.0
5126,6536.61,0.0
5127,6537.07,0.0
5128,6538.58,0.0
5129,6539.01,0.0
5130,6540.5,0.0
5131,6541.13,0.0
5132,6542.06,0.0
5133,6543.09,0.0
5134,6544.02,0.0
5135,6545.11,0.0
5136,6546.56,0.0
5137,6547.05,0.0
5138,6548.63,0.0
5139,6549.1,0.0
5140,6550.56,0.0
5141,6551.01,0.0
5142,6552.6,0.0
5143,6554.13,0.0
5144,6555.54,0.0
5145,6558.57,0.0
5146,6559.12,0.0
5147,6560.16,0.0
5148,6562.04,0.0
5149,6563.05,0.0
5150,6564.57,0.0
5151,6565.17,0.0
5152,6567.07,0.0
5153,6568.55,0.0
5154,6570.66,0.0
5155,6572.71,0.0
5156,6573.07,0.0
5157,6574.65,0.0
5158,6576.6,0.0
5159,6577.06,0.0
5160,6578.01,0.0
5161,6579.0,0.0
5162,6579.69,0.0
5163,6581.03,0.0
5164,6584.63,0.0
5165,6585.07,0.0
5166,6586.52,0.0
5167,6588.56,0.0
5168,6589.02,0.0
5169,6592.64,0.0
5170,6593.04,0.0
5171,6593.53,0.0
5172,6595.2,0.0
5173,6596.54,0.0
5174,6598.7,0.0
5175,6599.13,0.0
5176,6600.51,0.0
5177,6602.59,0.0
5178,6604.5,0.0
5179,6605.03,0.0
5180,6606.71,0.0
5181,6607.15,0.0
5182,6608.63,0.0
5183,6609.17,0.0
5184,6610.55,0.0
5185,6611.11,0.0
5186,6612.0,0.0
5187,6613.13,0.0
5188,6614.55,0.0
5189,6615.06,0.0
5190,6617.07,0.0
5191,6618.55,0.0
5192,6621.05,0.0
5193,6622.52,0.0
5194,6623.09,0.0
5195,6624.61,0.0
5196,6625.02,0.0
5197,6626.64,0.0
5198,6628.54,0.0
5199,6629.15,0.0
5200,6630.6,0.0
5201,6631.21,0.0
5202,6631.66,0.0
5203,6634.03,0.0
5204,6635.02,0.0
5205,6635.51,0.0
5206,6638.07,0.0
5207,6640.52,0.0
5208,6642.52,0.0
5209,6644.62,0.0
5210,6645.04,0.0
5211,6646.67,0.0
5212,6647.16,0.0
5213,6648.14,0.0
5214,6650.55,0.0
5215,6651.01,0.0
5216,6652.04,0.0
5217,6653.08,0.0
5218,6653.57,0.0
5219,6657.09,0.0
5220,6658.63,0.0
5221,6659.14,0.0
5222,6659.52,0.0
5223,6664.68,0.0
5224,6666.12,0.0
5225,6667.08,0.0
5226,6668.61,0.0
5227,6669.07,0.0
5228,6669.71,0.0
5229,6671.04,0.0
5230,6672.53,0.0
5231,6673.12,0.0
5232,6674.63,0.0
5233,6675.04,0.0
5234,6676.56,0.0
5235,6678.79,0.0
5236,6679.02,0.0
5237,6680.12,0.0
5238,6682.77,0.0
5239,6683.1,0.0
5240,6684.63,0.0
5241,6685.05,0.0
5242,6686.52,0.0
5243,6687.19,0.0
5244,6688.26,0.0
5245,6689.17,0.0
5246,6690.04,0.0
5247,6691.19,0.0
5248,6692.57,0.0
5249,6693.13,0.0
5250,6694.65,0.0
5251,6695.21,0.0
5252,6696.77,0.0
5253,6697.12,0.0
5254,6698.57,0.0
5255,6699.11,0.0
5256,6700.53,0.0
5257,6702.09,0.0
5258,6704.52,0.0
5259,6705.12,0.0
5260,6706.5,0.0
5261,6707.12,0.0
5262,6708.62,0.0
5263,6710.04,0.0
5264,6711.11,0.0
5265,6712.69,0.0
5266,6713.06,0.0
5267,6714.52,0.0
5268,6715.1,0.0
5269,6716.55,0.0
5270,6717.06,0.0
5271,6718.68,0.0
5272,6719.13,0.0
5273,6720.92,0.0
5274,6722.59,0.0
5275,6723.09,0.0
5276,6726.12,0.0
5277,6727.24,0.0
5278,6728.61,0.0
5279,6729.69,0.0
5280,6731.12,0.0
5281,6732.78,0.0
5282,6733.03,0.0
5283,6734.53,0.0
5284,6735.67,0.0
5285,6737.7,0.0
5286,6740.56,0.0
5287,6741.1,0.0
5288,6742.64,0.0
5289,6744.6,0.0
5290,6746.63,0.0
5291,6747.1,0.0
5292,6747.56,0.0
5293,6749.02,0.0
5294,6749.52,0.0
5295,6752.06,0.0
5296,6753.13,0.0
5297,6754.25,0.0
5298,6755.16,0.0
5299,6755.53,0.0
5300,6758.59,0.0
5301,6759.07,0.0
5302,6760.55,0.0
5303,6762.55,0.0
5304,6763.0,0.0
5305,6764.02,0.0
5306,6766.55,0.0
5307,6767.01,0.0
5308,6768.12,0.0
5309,6769.03,0.0
5310,6770.54,0.0
5311,6771.12,0.0
5312,6772.55,0.0
5313,6774.65,0.0
5314,6776.51,0.0
5315,6778.55,0.0
5316,6782.52,0.0
5317,6783.14,0.0
5318,6784.55,0.0
5319,6786.66,0.0
5320,6788.6,0.0
5321,6789.02,0.0
5322,6790.52,0.0
5323,6792.57,0.0
5324,6793.04,0.0
5325,6793.66,0.0
5326,6796.56,0.0
5327,6797.31,0.0
5328,6798.0,0.0
5329,6800.01,0.0
5330,6801.6,0.0
5331,6804.19,0.0
5332,6805.51,0.0
5333,6808.57,0.0
5334,6809.64,0.0
5335,6811.0,0.0
5336,6812.63,0.0
5337,6813.2,0.0
5338,6814.52,0.0
5339,6816.17,0.0
5340,6817.01,0.0
5341,6818.51,0.0
5342,6819.08,0.0
5343,6820.7,0.0
5344,6821.05,0.0
5345,6822.59,0.0
5346,6823.04,0.0
5347,6824.7,0.0
5348,6826.6,0.0
5349,6828.54,0.0
5350,6830.54,0.0
5351,6831.07,0.0
5352,6832.62,0.0
5353,6833.15,0.0
5354,6834.04,0.0
5355,6836.51,0.0
5356,6838.11,0.0
5357,6840.54,0.0
5358,6841.05,0.0
5359,6842.52,0.0
5360,6843.09,0.0
5361,6843.55,0.0
5362,6845.12,0.0
5363,6846.01,0.0
5364,6848.53,0.0
5365,6850.52,0.0
5366,6852.54,0.0
5367,6853.01,0.0
5368,6853.54,0.0
5369,6855.08,0.0
5370,6856.51,0.0
5371,6857.03,0.0
5372,6858.56,0.0
5373,6859.06,0.0
5374,6860.62,0.0
5375,6862.03,0.0
5376,6863.01,0.0
5377,6864.59,0.0
5378,6866.59,0.0
5379,6867.16,0.0
5380,6868.56,0.0
5381,6869.19,0.0
5382,6869.61,0.0
5383,6871.01,0.0
5384,6871.58,0.0
5385,6873.18,0.0
5386,6874.12,0.0
5387,6875.14,0.0
5388,6876.53,0.0
5389,6877.03,0.0
5390,6878.63,0.0
5391,6879.07,0.0
5392,6880.02,0.0
5393,6881.07,0.0
5394,6882.55,0.0
5395,6883.05,0.0
5396,6884.12,0.0
5397,6886.55,0.0
5398,6889.05,0.0
5399,6889.54,0.0
5400,6891.16,0.0
5401,6892.04,0.0
5402,6893.04,0.0
5403,6894.56,0.0
5404,6896.11,0.0
5405,6897.11,0.0
5406,6899.53,0.0
5407,6902.5,0.0
5408,6903.0,0.0
5409,6904.71,0.0
5410,6905.03,0.0
5411,6906.59,0.0
5412,6907.0,0.0
5413,6909.18,0.0
5414,6910.59,0.0
5415,6911.0,0.0
5416,6912.59,0.0
5417,6914.06,0.0
5418,6915.02,0.0
5419,6916.57,0.0
5420,6917.01,0.0
5421,6918.57,0.0
5422,6920.59,0.0
5423,6922.12,0.0
5424,6923.07,0.0
5425,6926.5,0.0
5426,6927.12,0.0
5427,6928.6,0.0
5428,6929.14,0.0
5429,6930.08,0.0
5430,6931.09,0.0
5431,6932.02,0.0
5432,6933.06,0.0
5433,6934.12,0.0
5434,6936.53,0.0
5435,6937.05,0.0
5436,6938.6,0.0
5437,6939.06,0.0
5438,6942.57,0.0
5439,6944.7,0.0
5440,6946.65,0.0
5441,6947.26,0.0
5442,6947.64,0.0
5443,6949.23,0.0
5444,6950.58,0.0
5445,6951.0,0.0
5446,6951.56,0.0
5447,6953.01,0.0
5448,6954.61,0.0
5449,6955.0,0.0
5450,6956.54,0.0
5451,6957.11,0.0
5452,6958.63,0.0
5453,6960.56,0.0
5454,6961.02,0.0
5455,6962.52,0.0
5456,6963.03,0.0
5457,6964.57,0.0
5458,6965.01,0.0
5459,6966.06,0.0
5460,6967.0,0.0
5461,6968.51,0.0
5462,6970.02,0.0
5463,6971.15,0.0
5464,6973.16,0.0
5465,6974.56,0.0
5466,6976.67,0.0
5467,6977.0,0.0
5468,6978.06,0.0
5469,6980.51,0.0
5470,6982.51,0.0
5471,6983.09,0.0
5472,6984.08,0.0
5473,6986.62,0.0
5474,6987.05,0.0
5475,6988.65,0.0
5476,6990.54,0.0
5477,6993.09,0.0
5478,6994.12,0.0
5479,6996.5,0.0
5480,6998.07,0.0
5481,7000.58,0.0
5482,7002.58,0.0
5483,7004.52,0.0
5484,7005.03,0.0
5485,7006.51,0.0
5486,7007.01,0.0
5487,7008.54,0.0
5488,7009.16,0.0
5489,7010.08,0.0
5490,7011.04,0.0
5491,7012.16,0.0
5492,7013.04,0.0
5493,7014.11,0.0
5494,7016.55,0.0
5495,7017.0,0.0
5496,7018.06,0.0
5497,7020.6,0.0
5498,7021.05,0.0
5499,7024.59,0.0
5500,7025.02,0.0
5501,7026.59,0.0
5502,7028.02,0.0
5503,7029.03,0.0
5504,7030.58,0.0
5505,7032.51,0.0
5506,7033.06,0.0
5507,7034.5,0.0
5508,7035.12,0.0
5509,7036.02,0.0
5510,7040.51,0.0
5511,7041.0,0.0
5512,7041.52,0.0
5513,7044.52,0.0
5514,7045.02,0.0
5515,7046.51,0.0
5516,7047.0,0.0
5517,7048.01,0.0
5518,7050.08,0.0
5519,7051.01,0.0
5520,7051.54,0.0
5521,7054.67,0.0
5522,7055.61,0.0
5523,7057.01,0.0
5524,7057.55,0.0
5525,7059.04,0.0
5526,7060.05,0.0
5527,7062.56,0.0
5528,7063.02,0.0
5529,7063.61,0.0
5530,7065.12,0.0
5531,7066.05,0.0
5532,7067.07,0.0
5533,7068.55,0.0
5534,7070.64,0.0
5535,7072.64,0.0
5536,7074.56,0.0
5537,7075.16,0.0
5538,7076.02,0.0
5539,7078.03,0.0
5540,7079.09,0.0
5541,7079.62,0.0
5542,7082.08,0.0
5543,7083.53,0.0
5544,7085.1,0.0
5545,7086.09,0.0
5546,7088.57,0.0
5547,7089.0,0.0
5548,7092.05,0.0
5549,7093.61,0.0
5550,7097.03,0.0
5551,7098.57,0.0
5552,7099.06,0.0
5553,7100.63,0.0
5554,7101.57,0.0
5555,7104.64,0.0
5556,7105.62,0.0
5557,7107.67,0.0
5558,7110.51,0.0
5559,7112.09,0.0
5560,7113.06,0.0
5561,7114.02,0.0
5562,7115.01,0.0
5563,7116.53,0.0
5564,7118.5,0.0
5565,7120.53,0.0
5566,7121.12,0.0
5567,7122.57,0.0
5568,7123.06,0.0
5569,7124.51,0.0
5570,7126.54,0.0
5571,7128.08,0.0
5572,7129.06,0.0
5573,7130.52,0.0
5574,7131.17,0.0
5575,7132.65,0.0
5576,7134.65,0.0
5577,7135.06,0.0
5578,7136.68,0.0
5579,7137.04,0.0
5580,7138.55,0.0
5581,7140.61,0.0
5582,7142.58,0.0
5583,7143.03,0.0
5584,7144.0,0.0
5585,7145.0,0.0
5586,7146.0,0.0
5587,7147.1,0.0
5588,7148.68,0.0
5589,7150.67,0.0
5590,7151.0,0.0
5591,7153.06,0.0
5592,7154.57,0.0
5593,7155.25,0.0
5594,7156.15,0.0
5595,7157.0,0.0
5596,7158.53,0.0
5597,7159.07,0.0
5598,7160.01,0.0
5599,7162.02,0.0
5600,7163.15,0.0
5601,7164.57,0.0
5602,7165.02,0.0
5603,7166.52,0.0
5604,7169.09,0.0
5605,7170.06,0.0
5606,7172.11,0.0
5607,7173.06,0.0
5608,7174.67,0.0
5609,7175.02,0.0
5610,7176.07,0.0
5611,7177.11,0.0
5612,7178.74,0.0
5613,7179.1,0.0
5614,7180.28,0.0
5615,7181.02,0.0
5616,7184.14,0.0
5617,7185.03,0.0
5618,7186.56,0.0
5619,7187.57,0.0
5620,7190.66,0.0
5621,7191.07,0.0
5622,7192.62,0.0
5623,7194.54,0.0
5624,7196.22,0.0
5625,7197.0,0.0
5626,7198.0,0.0
5627,7200.53,0.0
5628,7202.53,0.0
5629,7204.56,0.0
5630,7205.03,0.0
5631,7206.03,0.0
5632,7207.02,0.0
5633,7208.78,0.0
5634,7209.04,0.0
5635,7210.0,0.0
5636,7212.22,0.0
5637,7213.0,0.0
5638,7214.59,0.0
5639,7215.01,0.0
5640,7216.74,0.0
5641,7217.06,0.0
5642,7218.64,0.0
5643,7219.06,0.0
5644,7219.52,0.0
5645,7221.11,0.0
5646,7222.53,0.0
5647,7223.16,0.0
5648,7224.7,0.0
5649,7225.0,0.0
5650,7226.04,0.0
5651,7227.05,0.0
5652,7229.06,0.0
5653,7230.5,0.0
5654,7232.5,0.0
5655,7234.05,0.0
5656,7235.01,0.0
5657,7236.51,0.0
5658,7237.03,0.0
5659,7240.01,0.0
5660,7241.01,0.0
5661,7242.09,0.0
5662,7243.5,0.0
5663,7246.54,0.0
5664,7248.61,0.0
5665,7249.09,0.0
5666,7250.02,0.0
5667,7252.53,0.0
5668,7253.12,0.0
5669,7254.58,0.0
5670,7256.52,0.0
5671,7257.03,0.0
5672,7258.05,0.0
5673,7259.07,0.0
5674,7260.55,0.0
5675,7261.01,0.0
5676,7264.08,0.0
5677,7265.52,0.0
5678,7267.02,0.0
5679,7268.57,0.0
5680,7269.06,0.0
5681,7270.51,0.0
5682,7271.09,0.0
5683,7272.61,0.0
5684,7273.05,0.0
5685,7274.5,0.0
5686,7276.58,0.0
5687,7277.11,0.0
5688,7278.52,0.0
5689,7279.06,0.0
5690,7282.52,0.0
5691,7284.56,0.0
5692,7286.55,0.0
5693,7287.14,0.0
5694,7288.6,0.0
5695,7289.01,0.0
5696,7290.61,0.0
5697,7291.02,0.0
5698,7293.07,0.0
5699,7294.59,0.0
5700,7295.09,0.0
5701,7296.13,0.0
5702,7298.62,0.0
5703,7299.0,0.0
5704,7299.52,0.0
5705,7301.0,0.0
5706,7302.55,0.0
5707,7304.64,0.0
5708,7306.09,0.0
5709,7308.61,0.0
5710,7309.11,0.0
5711,7309.57,0.0
5712,7312.57,0.0
5713,7313.31,0.0
5714,7314.66,0.0
5715,7315.12,0.0
5716,7316.62,0.0
5717,7318.66,0.0
5718,7319.15,0.0
5719,7320.52,0.0
5720,7321.6,0.0
5721,7324.66,0.0
5722,7325.19,0.0
5723,7326.56,0.0
5724,7328.19,0.0
5725,7329.13,0.0
5726,7331.06,0.0
5727,7331.54,0.0
5728,7333.19,0.0
5729,7334.63,0.0
5730,7335.09,0.0
5731,7336.24,0.0
5732,7337.08,0.0
5733,7337.71,0.0
5734,7339.0,0.0
5735,7340.58,0.0
5736,7341.08,0.0
5737,7342.79,0.0
5738,7343.27,0.0
5739,7344.92,0.0
5740,7345.03,0.0
5741,7346.63,0.0
5742,7347.05,0.0
5743,7348.61,0.0
5744,7349.17,0.0
5745,7350.6,0.0
5746,7351.03,0.0
5747,7351.63,0.0
5748,7353.11,0.0
5749,7354.14,0.0
5750,7356.59,0.0
5751,7357.59,0.0
5752,7359.1,0.0
5753,7360.64,0.0
5754,7362.5,0.0
5755,7363.24,0.0
5756,7364.53,0.0
5757,7365.11,0.0
5758,7366.67,0.0
5759,7367.23,0.0
5760,7368.23,0.0
5761,7370.5,0.0
5762,7371.19,0.0
5763,7372.63,0.0
5764,7373.57,0.0
5765,7375.03,0.0
5766,7376.14,0.0
5767,7377.04,0.0
5768,7378.51,0.0
5769,7380.11,0.0
5770,7381.23,0.0
5771,7382.53,0.0
5772,7384.67,0.0
5773,7385.04,0.0
5774,7386.63,0.0
5775,7388.55,0.0
5776,7389.14,0.0
5777,7390.68,0.0
5778,7391.0,0.0
5779,7392.63,0.0
5780,7393.51,0.0
5781,7396.75,0.0
5782,7398.18,0.0
5783,7400.63,0.0
5784,7401.13,0.0
5785,7402.68,0.0
5786,7404.68,0.0
5787,7407.19,0.0
5788,7409.07,0.0
5789,7409.53,0.0
5790,7412.77,0.0
5791,7413.07,0.0
5792,7414.0,0.0
5793,7415.08,0.0
5794,7415.68,0.0
5795,7417.04,0.0
5796,7418.73,0.0
5797,7419.12,0.0
5798,7420.21,0.0
5799,7422.67,0.0
5800,7423.28,0.0
5801,7424.65,0.0
5802,7425.05,0.0
5803,7426.61,0.0
5804,7427.22,0.0
5805,7428.57,0.0
5806,7429.09,0.0
5807,7430.1,0.0
5808,7431.29,0.0
5809,7432.8,0.0
5810,7434.58,0.0
5811,7435.1,0.0
5812,7436.51,0.0
5813,7437.24,0.0
5814,7438.62,0.0
5815,7439.14,0.0
5816,7440.78,0.0
5817,7442.56,0.0
5818,7443.32,0.0
5819,7443.82,0.0
5820,7445.15,0.0
5821,7446.5,0.0
5822,7447.11,0.0
5823,7448.59,0.0
5824,7449.2,0.0
5825,7450.53,0.0
5826,7452.21,0.0
5827,7453.09,0.0
5828,7454.78,0.0
5829,7455.17,0.0
5830,7456.88,0.0
5831,7458.18,0.0
5832,7459.14,0.0
5833,7460.25,0.0
5834,7461.09,0.0
5835,7469.59,0.0
5836,7471.01,0.0
5837,7471.5,0.0
5838,7474.64,0.0
5839,7475.07,0.0
5840,7476.6,0.0
5841,7477.1,0.0
5842,7478.52,0.0
5843,7480.1,0.0
5844,7481.17,0.0
5845,7483.0,0.0
5846,7484.67,0.0
5847,7486.62,0.0
5848,7488.08,0.0
5849,7489.17,0.0
5850,7490.54,0.0
5851,7492.69,0.0
5852,7494.68,0.0
5853,7496.5,0.0
5854,7497.14,0.0
5855,7498.74,0.0
5856,7499.15,0.0
5857,7500.62,0.0
5858,7501.2,0.0
5859,7502.7,0.0
5860,7504.56,0.0
5861,7506.59,0.0
5862,7508.64,0.0
5863,7509.11,0.0
5864,7510.6,0.0
5865,7511.0,0.0
5866,7511.53,0.0
5867,7513.52,0.0
5868,7516.68,0.0
5869,7517.12,0.0
5870,7519.01,0.0
5871,7520.19,0.0
5872,7522.51,0.0
5873,7523.13,0.0
5874,7524.58,0.0
5875,7525.06,0.0
5876,7526.09,0.0
5877,7528.64,0.0
5878,7529.53,0.0
5879,7531.69,0.0
5880,7533.05,0.0
5881,7534.51,0.0
5882,7536.73,0.0
5883,7537.2,0.0
5884,7537.59,0.0
5885,7539.11,0.0
5886,7540.52,0.0
5887,7541.06,0.0
5888,7542.52,0.0
5889,7544.61,0.0
5890,7545.06,0.0
5891,7546.5,0.0
5892,7547.04,0.0
5893,7547.58,0.0
5894,7550.57,0.0
5895,7552.66,0.0
5896,7553.04,0.0
5897,7554.17,0.0
5898,7555.06,0.0
5899,7556.02,0.0
5900,7558.5,0.0
5901,7560.58,0.0
5902,7561.1,0.0
5903,7562.13,0.0
5904,7563.22,0.0
5905,7564.57,0.0
5906,7565.14,0.0
5907,7566.23,0.0
5908,7567.27,0.0
5909,7568.76,0.0
5910,7570.3,0.0
5911,7572.51,0.0
5912,7574.52,0.0
5913,7576.66,0.0
5914,7577.02,0.0
5915,7577.56,0.0
5916,7579.17,0.0
5917,7580.51,0.0
5918,7582.06,0.0
5919,7583.18,0.0
5920,7584.56,0.0
5921,7586.57,0.0
5922,7587.0,0.0
5923,7588.0,0.0
5924,7589.03,0.0
5925,7591.03,0.0
5926,7592.67,0.0
5927,7593.03,0.0
5928,7594.59,0.0
5929,7596.07,0.0
5930,7597.05,0.0
5931,7598.71,0.0
5932,7600.56,0.0
5933,7601.03,0.0
5934,7602.01,0.0
5935,7604.69,0.0
5936,7605.09,0.0
5937,7606.6,0.0
5938,7608.58,0.0
5939,7610.58,0.0
5940,7611.32,0.0
5941,7612.2,0.0
5942,7614.59,0.0
5943,7615.63,0.0
5944,7617.16,0.0
5945,7618.27,0.0
5946,7619.13,0.0
5947,7620.53,0.0
5948,7622.66,0.0
5949,7623.63,0.0
5950,7625.14,0.0
5951,7626.04,0.0
5952,7628.71,0.0
5953,7629.12,0.0
5954,7630.12,0.0
5955,7632.56,0.0
5956,7633.2,0.0
5957,7634.5,0.0
5958,7636.04,0.0
5959,7638.58,0.0
5960,7640.58,0.0
5961,7642.51,0.0
5962,7643.19,0.0
5963,7644.5,0.0
5964,7645.02,0.0
5965,7646.53,0.0
5966,7647.06,0.0
5967,7647.53,0.0
5968,7650.55,0.0
5969,7652.58,0.0
5970,7656.25,0.0
5971,7658.01,0.0
5972,7660.07,0.0
5973,7661.15,0.0
5974,7662.21,0.0
5975,7663.12,0.0
5976,7664.54,0.0
5977,7666.6,0.0
5978,7668.59,0.0
5979,7669.0,0.0
5980,7670.08,0.0
5981,7671.04,0.0
5982,7672.64,0.0
5983,7673.13,0.0
5984,7674.61,0.0
5985,7675.1,0.0
5986,7676.55,0.0
5987,7678.52,0.0
5988,7679.17,0.0
5989,7680.65,0.0
5990,7682.6,0.0
5991,7683.05,0.0
5992,7684.72,0.0
5993,7685.25,0.0
5994,7685.5,0.0
5995,7687.04,0.0
5996,7688.13,0.0
5997,7689.09,0.0
5998,7690.05,0.0
5999,7691.02,0.0
6000,7692.71,0.0
6001,7694.52,0.0
6002,7695.02,0.0
6003,7697.08,0.0
6004,7698.73,0.0
6005,7699.19,0.0
6006,7700.56,0.0
6007,7701.0,0.0
6008,7702.02,0.0
6009,7703.1,0.0
6010,7704.74,0.0
6011,7706.62,0.0
6012,7708.05,0.0
6013,7709.01,0.0
6014,7710.13,0.0
6015,7711.19,0.0
6016,7712.61,0.0
6017,7716.01,0.0
6018,7718.14,0.0
6019,7720.56,0.0
6020,7722.86,0.0
6021,7725.12,0.0
6022,7726.61,0.0
6023,7727.09,0.0
6024,7728.04,0.0
6025,7730.66,0.0
6026,7731.02,0.0
6027,7732.72,0.0
6028,7733.0,0.0
6029,7734.2,0.0
6030,7736.68,0.0
6031,7737.25,0.0
6032,7738.54,0.0
6033,7740.71,0.0
6034,7741.27,0.0
6035,7742.71,0.0
6036,7743.11,0.0
6037,7744.07,0.0
6038,7745.25,0.0
6039,7746.65,0.0
6040,7747.0,0.0
6041,7748.68,0.0
6042,7749.21,0.0
6043,7750.7,0.0
6044,7751.17,0.0
6045,7752.84,0.0
6046,7753.2,0.0
6047,7754.05,0.0
6048,7755.06,0.0
6049,7756.0,0.0
6050,7758.53,0.0
6051,7760.2,0.0
6052,7762.58,0.0
6053,7764.59,0.0
6054,7765.08,0.0
6055,7766.69,0.0
6056,7767.18,0.0
6057,7768.23,0.0
6058,7770.57,0.0
6059,7771.17,0.0
6060,7772.54,0.0
6061,7773.08,0.0
6062,7774.63,0.0
6063,7775.03,0.0
6064,7776.53,0.0
6065,7777.0,0.0
6066,7778.76,0.0
6067,7779.23,0.0
6068,7781.03,0.0
6069,7782.52,0.0
6070,7783.15,0.0
6071,7784.57,0.0
6072,7785.18,0.0
6073,7785.61,0.0
6074,7787.1,0.0
6075,7788.62,0.0
6076,7789.02,0.0
6077,7789.5,0.0
6078,7792.7,0.0
6079,7794.74,0.0
6080,7795.09,0.0
6081,7796.7,0.0
6082,7797.01,0.0
6083,7798.63,0.0
6084,7799.16,0.0
6085,7800.5,0.0
6086,7801.11,0.0
6087,7802.69,0.0
6088,7803.29,0.0
6089,7804.52,0.0
6090,7805.09,0.0
6091,7806.56,0.0
6092,7807.01,0.0
6093,7808.53,0.0
6094,7809.01,0.0
6095,7810.64,0.0
6096,7811.1,0.0
6097,7812.55,0.0
6098,7813.1,0.0
6099,7814.72,0.0
6100,7815.13,0.0
6101,7816.61,0.0
6102,7817.04,0.0
6103,7818.54,0.0
6104,7819.01,0.0
6105,7820.65,0.0
6106,7821.0,0.0
6107,7822.54,0.0
6108,7823.07,0.0
6109,7824.63,0.0
6110,7825.03,0.0
6111,7826.6,0.0
6112,7827.0,0.0
6113,7828.6,0.0
6114,7829.13,0.0
6115,7830.54,0.0
6116,7831.19,0.0
6117,7832.08,0.0
6118,7834.57,0.0
6119,7835.05,0.0
6120,7835.57,0.0
6121,7837.1,0.0
6122,7838.52,0.0
6123,7839.08,0.0
6124,7840.56,0.0
6125,7842.16,0.0
6126,7843.05,0.0
6127,7844.0,0.0
6128,7845.09,0.0
6129,7845.52,0.0
6130,7847.05,0.0
6131,7848.64,0.0
6132,7849.04,0.0
6133,7850.59,0.0
6134,7851.08,0.0
6135,7852.12,0.0
6136,7853.03,0.0
6137,7854.53,0.0
6138,7855.01,0.0
6139,7855.58,0.0
6140,7857.01,0.0
6141,7858.1,0.0
6142,7859.14,0.0
6143,7860.54,0.0
6144,7861.07,0.0
6145,7862.63,0.0
6146,7864.54,0.0
6147,7866.05,0.0
6148,7867.08,0.0
6149,7868.05,0.0
6150,7870.55,0.0
6151,7871.17,0.0
6152,7872.56,0.0
6153,7873.15,0.0
6154,7874.61,0.0
6155,7876.01,0.0
6156,7877.09,0.0
6157,7878.62,0.0
6158,7879.0,0.0
6159,7881.04,0.0
6160,7882.77,0.0
6161,7883.12,0.0
6162,7884.54,0.0
6163,7886.0,0.0
6164,7888.51,0.0
6165,7889.07,0.0
6166,7890.04,0.0
6167,7891.0,0.0
6168,7892.24,0.0
6169,7893.08,0.0
6170,7894.54,0.0
6171,7895.06,0.0
6172,7895.56,0.0
6173,7897.02,0.0
6174,7898.61,0.0
6175,7899.17,0.0
6176,7900.58,0.0
6177,7901.14,0.0
6178,7902.55,0.0
6179,7903.17,0.0
6180,7904.53,0.0
6181,7906.6,0.0
6182,7907.0,0.0
6183,7908.69,0.0
6184,7909.09,0.0
6185,7910.5,0.0
6186,7911.03,0.0
6187,7912.06,0.0
6188,7913.18,0.0
6189,7915.0,0.0
6190,7916.63,0.0
6191,7918.65,0.0
6192,7919.03,0.0
6193,7920.57,0.0
6194,7921.1,0.0
6195,7922.52,0.0
6196,7923.03,0.0
6197,7924.57,0.0
6198,7925.5,0.0
6199,7927.05,0.0
6200,7928.04,0.0
6201,7930.54,0.0
6202,7931.02,0.0
6203,7932.58,0.0
6204,7934.54,0.0
6205,7936.5,0.0
6206,7937.08,0.0
6207,7938.56,0.0
6208,7939.01,0.0
6209,7940.08,0.0
6210,7941.01,0.0
6211,7942.5,0.0
6212,7943.12,0.0
6213,7944.53,0.0
6214,7946.56,0.0
6215,7948.52,0.0
6216,7949.13,0.0
6217,7950.7,0.0
6218,7951.1,0.0
6219,7952.05,0.0
6220,7953.1,0.0
6221,7954.51,0.0
6222,7955.08,0.0
6223,7955.63,0.0
6224,7958.15,0.0
6225,7959.17,0.0
6226,7960.93,0.0
6227,7962.53,0.0
6228,7963.0,0.0
6229,7964.53,0.0
6230,7965.16,0.0
6231,7966.56,0.0
6232,7967.12,0.0
6233,7969.0,0.0
6234,7970.69,0.0
6235,7971.0,0.0
6236,7972.6,0.0
6237,7974.15,0.0
6238,7975.11,0.0
6239,7976.52,0.0
6240,7977.17,0.0
6241,7978.56,0.0
6242,7980.67,0.0
6243,7981.03,0.0
6244,7982.66,0.0
6245,7983.01,0.0
6246,7984.65,0.0
6247,7985.09,0.0
6248,7987.34,0.0
6249,7988.76,0.0
6250,7990.15,0.0
6251,7991.18,0.0
6252,7992.62,0.0
6253,7994.53,0.0
6254,7995.02,0.0
6255,7997.07,0.0
6256,7998.75,0.0
6257,8000.61,0.0
6258,8001.05,0.0
6259,8002.57,0.0
6260,8003.17,0.0
6261,8004.63,0.0
6262,8006.59,0.0
6263,8008.7,0.0
6264,8010.18,0.0
6265,8012.63,0.0
6266,8013.68,0.0
6267,8015.57,0.0
6268,8018.07,0.0
6269,8019.17,0.0
6270,8020.51,0.0
6271,8021.09,0.0
6272,8022.08,0.0
6273,8023.01,0.0
6274,8024.54,0.0
6275,8025.13,0.0
6276,8026.05,0.0
6277,8028.51,0.0
6278,8030.51,0.0
6279,8031.01,0.0
6280,8032.52,0.0
6281,8034.51,0.0
6282,8035.01,0.0
6283,8036.54,0.0
6284,8037.0,0.0
6285,8039.02,0.0
6286,8040.1,0.0
6287,8042.62,0.0
6288,8043.04,0.0
6289,8044.56,0.0
6290,8045.08,0.0
6291,8045.5,0.0
6292,8048.01,0.0
6293,8049.12,0.0
6294,8049.59,0.0
6295,8051.09,0.0
6296,8054.1,0.0
6297,8055.12,0.0
6298,8056.55,0.0
6299,8057.08,0.0
6300,8058.5,0.0
6301,8060.5,0.0
6302,8061.09,0.0
6303,8062.01,0.0
6304,8064.54,0.0
6305,8066.54,0.0
6306,8067.14,0.0
6307,8068.57,0.0
6308,8071.04,0.0
6309,8072.08,0.0
6310,8073.05,0.0
6311,8074.03,0.0
6312,8076.58,0.0
6313,8077.05,0.0
6314,8078.56,0.0
6315,8080.12,0.0
6316,8082.5,0.0
6317,8084.6,0.0
6318,8085.09,0.0
6319,8087.14,0.0
6320,8088.65,0.0
6321,8090.07,0.0
6322,8091.26,0.0
6323,8092.58,0.0
6324,8094.5,0.0
6325,8095.1,0.0
6326,8096.27,0.0
6327,8097.08,0.0
6328,8098.62,0.0
6329,8100.54,0.0
6330,8101.18,0.0
6331,8102.54,0.0
6332,8103.02,0.0
6333,8103.79,0.0
6334,8106.56,0.0
6335,8107.1,0.0
6336,8108.02,0.0
6337,8110.7,0.0
6338,8112.12,0.0
6339,8114.21,0.0
6340,8115.09,0.0
6341,8116.07,0.0
6342,8117.1,0.0
6343,8118.01,0.0
6344,8120.57,0.0
6345,8121.05,0.0
6346,8122.52,0.0
6347,8123.1,0.0
6348,8124.27,0.0
6349,8125.09,0.0
6350,8126.76,0.0
6351,8127.06,0.0
6352,8127.75,0.0
6353,8130.58,0.0
6354,8131.01,0.0
6355,8132.1,0.0
6356,8134.54,0.0
6357,8135.08,0.0
6358,8136.0,0.0
6359,8138.04,0.0
6360,8140.05,0.0
6361,8141.06,0.0
6362,8142.53,0.0
6363,8143.13,0.0
6364,8144.51,0.0
6365,8145.02,0.0
6366,8146.55,0.0
6367,8147.11,0.0
6368,8148.55,0.0
6369,8150.63,0.0
6370,8151.12,0.0
6371,8152.67,0.0
6372,8153.03,0.0
6373,8153.64,0.0
6374,8156.09,0.0
6375,8158.0,0.0
6376,8159.08,0.0
6377,8160.58,0.0
6378,8161.07,0.0
6379,8162.5,0.0
6380,8163.01,0.0
6381,8164.63,0.0
6382,8165.0,0.0
6383,8166.19,0.0
6384,8167.0,0.0
6385,8168.59,0.0
6386,8169.04,0.0
6387,8170.82,0.0
6388,8171.09,0.0
6389,8172.04,0.0
6390,8173.1,0.0
6391,8174.61,0.0
6392,8176.12,0.0
6393,8178.66,0.0
6394,8180.56,0.0
6395,8182.65,0.0
6396,8183.1,0.0
6397,8184.51,0.0
6398,8185.11,0.0
6399,8186.08,0.0
6400,8187.05,0.0
6401,8188.07,0.0
6402,8190.07,0.0
6403,8191.04,0.0
6404,8192.52,0.0
6405,8193.14,0.0
6406,8194.59,0.0
6407,8195.01,0.0
6408,8196.52,0.0
6409,8197.08,0.0
6410,8198.54,0.0
6411,8199.09,0.0
6412,8200.51,0.0
6413,8201.08,0.0
6414,8202.55,0.0
6415,8203.02,0.0
6416,8205.02,0.0
6417,8205.52,0.0
6418,8207.09,0.0
6419,8208.0,0.0
6420,8209.01,0.0
6421,8210.56,0.0
6422,8212.56,0.0
6423,8213.08,0.0
6424,8214.59,0.0
6425,8215.02,0.0
6426,8216.51,0.0
6427,8218.01,0.0
6428,8220.51,0.0
6429,8222.54,0.0
6430,8223.52,0.0
6431,8225.04,0.0
6432,8226.54,0.0
6433,8228.56,0.0
6434,8229.03,0.0
6435,8230.72,0.0
6436,8231.0,0.0
6437,8232.21,0.0
6438,8234.56,0.0
6439,8236.65,0.0
6440,8238.02,0.0
6441,8240.58,0.0
6442,8241.15,0.0
6443,8242.09,0.0
6444,8244.59,0.0
6445,8246.53,0.0
6446,8248.52,0.0
6447,8249.12,0.0
6448,8250.55,0.0
6449,8252.51,0.0
6450,8253.02,0.0
6451,8254.62,0.0
6452,8256.5,0.0
6453,8257.01,0.0
6454,8258.56,0.0
6455,8260.52,0.0
6456,8261.08,0.0
6457,8262.52,0.0
6458,8265.09,0.0
6459,8266.0,0.0
6460,8267.07,0.0
6461,8268.57,0.0
6462,8270.52,0.0
6463,8271.5,0.0
6464,8273.03,0.0
6465,8275.03,0.0
6466,8276.04,0.0
6467,8278.53,0.0
6468,8279.0,0.0
6469,8280.56,0.0
6470,8281.0,0.0
6471,8282.63,0.0
6472,8283.04,0.0
6473,8284.55,0.0
6474,8286.51,0.0
6475,8287.01,0.0
6476,8288.03,0.0
6477,8289.64,0.0
6478,8291.04,0.0
6479,8292.55,0.0
6480,8293.0,0.0
6481,8294.02,0.0
6482,8295.08,0.0
6483,8296.6,0.0
6484,8297.02,0.0
6485,8298.07,0.0
6486,8299.04,0.0
6487,8300.6,0.0
6488,8302.59,0.0
6489,8303.04,0.0
6490,8304.05,0.0
6491,8306.51,0.0
6492,8308.53,0.0
6493,8309.04,0.0
6494,8310.09,0.0
6495,8311.08,0.0
6496,8312.56,0.0
6497,8313.11,0.0
6498,8314.52,0.0
6499,8315.02,0.0
6500,8316.07,0.0
6501,8318.64,0.0
6502,8319.0,0.0
6503,8320.02,0.0
6504,8321.0,0.0
6505,8322.58,0.0
6506,8323.03,0.0
6507,8324.53,0.0
6508,8325.06,0.0
6509,8326.01,0.0
6510,8327.0,0.0
6511,8328.56,0.0
6512,8329.0,0.0
6513,8330.02,0.0
6514,8331.07,0.0
6515,8332.52,0.0
6516,8334.55,0.0
6517,8336.52,0.0
6518,8337.01,0.0
6519,8338.58,0.0
6520,8339.0,0.0
6521,8340.5,0.0
6522,8341.02,0.0
6523,8341.51,0.0
6524,8343.05,0.0
6525,8344.55,0.0
6526,8345.06,0.0
6527,8346.5,0.0
6528,8347.02,0.0
6529,8348.55,0.0
6530,8349.04,0.0
6531,8350.5,0.0
6532,8351.0,0.0
6533,8352.0,0.0
6534,8354.5,0.0
6535,8355.01,0.0
6536,8357.0,0.0
6537,8358.01,0.0
6538,8359.04,0.0
6539,8361.54,0.0
6540,8365.01,0.0
6541,8366.5,0.0
6542,8367.05,0.0
6543,8368.54,0.0
6544,8369.03,0.0
6545,8370.5,0.0
6546,8372.52,0.0
6547,8373.07,0.0
6548,8373.58,0.0
6549,8375.04,0.0
6550,8376.53,0.0
6551,8377.03,0.0
6552,8381.04,0.0
6553,8382.51,0.0
6554,8383.08,0.0
6555,8384.58,0.0
6556,8385.04,0.0
6557,8386.57,0.0
6558,8387.04,0.0
6559,8388.51,0.0
6560,8390.52,0.0
6561,8391.11,0.0
6562,8391.54,0.0
6563,8394.51,0.0
6564,8395.06,0.0
6565,8396.5,0.0
6566,8397.0,0.0
6567,8398.54,0.0
6568,8399.03,0.0
6569,8400.57,0.0
6570,8401.07,0.0
6571,8404.0,0.0
6572,8405.04,0.0
6573,8406.55,0.0
6574,8408.55,0.0
6575,8409.0,0.0
6576,8410.51,0.0
6577,8412.57,0.0
6578,8413.06,0.0
6579,8414.5,0.0
6580,8415.1,0.0
6581,8415.54,0.0
6582,8417.1,0.0
6583,8418.56,0.0
6584,8419.14,0.0
6585,8420.5,0.0
6586,8427.56,0.0
6587,8430.55,0.0
6588,8431.12,0.0
6589,8432.04,0.0
6590,8434.06,0.0
6591,8435.06,0.0
6592,8436.59,0.0
6593,8437.0,0.0
6594,8438.0,0.0
6595,8439.07,0.0
6596,8440.56,0.0
6597,8441.06,0.0
6598,8442.16,0.0
6599,8443.05,0.0
6600,8444.52,0.0
6601,8446.5,0.0
6602,8448.53,0.0
6603,8450.01,0.0
6604,8451.0,0.0
6605,8452.54,0.0
6606,8453.06,0.0
6607,8454.6,0.0
6608,8456.58,0.0
6609,8457.01,0.0
6610,8458.02,0.0
6611,8459.03,0.0
6612,8461.09,0.0
6613,8462.56,0.0
6614,8464.03,0.0
6615,8465.0,0.0
6616,8466.56,0.0
6617,8468.53,0.0
6618,8470.6,0.0
6619,8472.03,0.0
6620,8473.07,0.0
6621,8474.07,0.0
6622,8475.0,0.0
6623,8475.61,0.0
6624,8477.03,0.0
6625,8478.02,0.0
6626,8479.08,0.0
6627,8480.5,0.0
6628,8481.09,0.0
6629,8482.59,0.0
6630,8483.05,0.0
6631,8484.54,0.0
6632,8486.02,0.0
6633,8487.04,0.0
6634,8488.54,0.0
6635,8489.02,0.0
6636,8490.07,0.0
6637,8492.55,0.0
6638,8493.0,0.0
6639,8494.53,0.0
6640,8495.04,0.0
6641,8496.53,0.0
6642,8498.01,0.0
6643,8499.02,0.0
6644,8502.51,0.0
6645,8504.51,0.0
6646,8506.1,0.0
6647,8507.09,0.0
6648,8508.07,0.0
6649,8509.54,0.0
6650,8511.03,0.0
6651,8512.5,0.0
6652,8513.08,0.0
6653,8514.07,0.0
6654,8515.12,0.0
6655,8515.51,0.0
6656,8518.57,0.0
6657,8519.0,0.0
6658,8520.5,0.0
6659,8522.03,0.0
6660,8523.52,0.0
6661,8526.01,0.0
6662,8528.51,0.0
6663,8529.09,0.0
6664,8530.55,0.0
6665,8531.03,0.0
6666,8532.02,0.0
6667,8534.56,0.0
6668,8535.04,0.0
6669,8536.07,0.0
6670,8538.09,0.0
6671,8540.5,0.0
6672,8542.54,0.0
6673,8544.54,0.0
6674,8545.05,0.0
6675,8547.56,0.0
6676,8550.02,0.0
6677,8551.02,0.0
6678,8553.01,0.0
6679,8554.5,0.0
6680,8555.07,0.0
6681,8556.54,0.0
6682,8557.11,0.0
6683,8558.55,0.0
6684,8559.08,0.0
6685,8560.59,0.0
6686,8561.12,0.0
6687,8562.02,0.0
6688,8563.0,0.0
6689,8564.5,0.0
6690,8565.05,0.0
6691,8566.04,0.0
6692,8567.14,0.0
6693,8568.51,0.0
6694,8569.06,0.0
6695,8570.52,0.0
6696,8571.08,0.0
6697,8572.54,0.0
6698,8574.51,0.0
6699,8576.68,0.0
6700,8578.54,0.0
6701,8580.63,0.0
6702,8581.01,0.0
6703,8582.55,0.0
6704,8583.03,0.0
6705,8584.6,0.0
6706,8585.04,0.0
6707,8586.01,0.0
6708,8587.12,0.0
6709,8588.58,0.0
6710,8590.51,0.0
6711,8591.04,0.0
6712,8591.53,0.0
6713,8593.04,0.0
6714,8594.52,0.0
6715,8595.04,0.0
6716,8595.53,0.0
6717,8597.02,0.0
6718,8598.02,0.0
6719,8601.0,0.0
6720,8601.54,0.0
6721,8604.53,0.0
6722,8605.03,0.0
6723,8606.56,0.0
6724,8607.01,0.0
6725,8608.57,0.0
6726,8609.06,0.0
6727,8610.1,0.0
6728,8612.59,0.0
6729,8614.59,0.0
6730,8615.08,0.0
6731,8616.58,0.0
6732,8617.09,0.0
6733,8619.05,0.0
6734,8620.5,0.0
6735,8622.11,0.0
6736,8623.1,0.0
6737,8623.53,0.0
6738,8625.07,0.0
6739,8628.54,0.0
6740,8629.05,0.0
6741,8629.6,0.0
6742,8631.52,0.0
6743,8634.57,0.0
6744,8635.21,0.0
6745,8636.13,0.0
6746,8637.02,0.0
6747,8638.09,0.0
6748,8639.0,0.0
6749,8640.16,0.0
6750,8641.04,0.0
6751,8642.56,0.0
6752,8643.01,0.0
6753,8643.55,0.0
6754,8645.07,0.0
6755,8646.63,0.0
6756,8648.5,0.0
6757,8650.5,0.0
6758,8651.05,0.0
6759,8652.5,0.0
6760,8654.63,0.0
6761,8655.0,0.0
6762,8656.59,0.0
6763,8657.08,0.0
6764,8658.56,0.0
6765,8659.0,0.0
6766,8660.58,0.0
6767,8661.04,0.0
6768,8663.0,0.0
6769,8664.5,0.0
6770,8665.01,0.0
6771,8666.54,0.0
6772,8667.0,0.0
6773,8668.57,0.0
6774,8669.05,0.0
6775,8670.53,0.0
6776,8671.01,0.0
6777,8672.5,0.0
6778,8673.0,0.0
6779,8673.52,0.0
6780,8676.53,0.0
6781,8677.06,0.0
6782,8678.55,0.0
6783,8679.03,0.0
6784,8679.52,0.0
6785,8681.01,0.0
6786,8682.0,0.0
6787,8683.01,0.0
6788,8683.58,0.0
6789,8685.01,0.0
6790,8686.55,0.0
6791,8687.0,0.0
6792,8688.53,0.0
6793,8689.0,0.0
6794,8690.51,0.0
6795,8691.02,0.0
6796,8692.0,0.0
6797,8693.03,0.0
6798,8694.0,0.0
6799,8696.61,0.0
6800,8697.04,0.0
6801,8698.15,0.0
6802,8700.52,0.0
6803,8701.16,0.0
6804,8702.5,0.0
6805,8703.0,0.0
6806,8704.0,0.0
6807,8705.04,0.0
6808,8706.5,0.0
6809,8707.04,0.0
6810,8708.57,0.0
6811,8709.52,0.0
6812,8711.01,0.0
6813,8712.5,0.0
6814,8714.53,0.0
6815,8716.51,0.0
6816,8717.08,0.0
6817,8717.59,0.0
6818,8719.06,0.0
6819,8720.67,0.0
6820,8721.02,0.0
6821,8722.56,0.0
6822,8724.5,0.0
6823,8725.02,0.0
6824,8726.04,0.0
6825,8728.52,0.0
6826,8729.01,0.0
6827,8730.61,0.0
6828,8731.03,0.0
6829,8732.55,0.0
6830,8733.0,0.0
6831,8734.01,0.0
6832,8736.51,0.0
6833,8737.03,0.0
6834,8737.57,0.0
6835,8739.55,0.0
6836,8741.08,0.0
6837,8742.55,0.0
6838,8743.08,0.0
6839,8744.53,0.0
6840,8745.08,0.0
6841,8746.57,0.0
6842,8747.05,0.0
6843,8748.53,0.0
6844,8749.0,0.0
6845,8751.04,0.0
6846,8752.06,0.0
6847,8753.11,0.0
6848,8753.55,0.0
6849,8755.05,0.0
6850,8757.09,0.0
6851,8758.58,0.0
6852,8759.07,0.0
6853,8760.5,0.0
6854,8761.03,0.0
6855,8762.56,0.0
6856,8763.1,0.0
6857,8764.56,0.0
6858,8765.09,0.0
6859,8766.54,0.0
6860,8767.58,0.0
6861,8769.1,0.0
6862,8770.64,0.0
6863,8771.01,0.0
6864,8772.59,0.0
6865,8773.11,0.0
6866,8774.57,0.0
6867,8775.0,0.0
6868,8776.5,0.0
6869,8777.55,0.0
6870,8780.54,0.0
6871,8782.5,0.0
6872,8783.0,0.0
6873,8784.56,0.0
6874,8785.02,0.0
6875,8785.58,0.0
6876,8787.12,0.0
6877,8788.55,0.0
6878,8790.56,0.0
6879,8792.62,0.0
6880,8794.51,0.0
6881,8796.54,0.0
6882,8798.02,0.0
6883,8799.07,0.0
6884,8800.52,0.0
6885,8802.63,0.0
6886,8803.04,0.0
6887,8803.55,0.0
6888,8805.0,0.0
6889,8806.05,0.0
6890,8810.56,0.0
6891,8811.05,0.0
6892,8812.54,0.0
6893,8813.03,0.0
6894,8814.54,0.0
6895,8816.01,0.0
6896,8817.05,0.0
6897,8818.5,0.0
6898,8819.0,0.0
6899,8820.61,0.0
6900,8822.0,0.0
6901,8823.03,0.0
6902,8824.01,0.0
6903,8825.02,0.0
6904,8825.53,0.0
6905,8828.52,0.0
6906,8830.02,0.0
6907,8831.06,0.0
6908,8832.5,0.0
6909,8833.07,0.0
6910,8833.5,0.0
6911,8835.04,0.0
6912,8836.08,0.0
6913,8837.04,0.0
6914,8838.54,0.0
6915,8839.1,0.0
6916,8840.5,0.0
6917,8841.02,0.0
6918,8842.56,0.0
6919,8843.5,0.0
6920,8846.59,0.0
6921,8847.02,0.0
6922,8848.59,0.0
6923,8849.1,0.0
6924,8850.06,0.0
6925,8851.09,0.0
6926,8852.6,0.0
6927,8853.07,0.0
6928,8854.53,0.0
6929,8855.0,0.0
6930,8856.57,0.0
6931,8858.03,0.0
6932,8859.07,0.0
6933,8859.58,0.0
6934,8861.04,0.0
6935,8862.52,0.0
6936,8863.0,0.0
6937,8864.07,0.0
6938,8865.05,0.0
6939,8867.07,0.0
6940,8868.56,0.0
6941,8869.03,0.0
6942,8870.0,0.0
6943,8871.06,0.0
6944,8872.56,0.0
6945,8873.03,0.0
6946,8874.6,0.0
6947,8876.55,0.0
6948,8877.05,0.0
6949,8878.53,0.0
6950,8879.11,0.0
6951,8880.08,0.0
6952,8881.07,0.0
6953,8882.5,0.0
6954,8884.54,0.0
6955,8886.51,0.0
6956,8887.08,0.0
6957,8888.5,0.0
6958,8889.04,0.0
6959,8890.59,0.0
6960,8891.01,0.0
6961,8892.59,0.0
6962,8893.05,0.0
6963,8894.13,0.0
6964,8895.09,0.0
6965,8896.53,0.0
6966,8897.02,0.0
6967,8898.06,0.0
6968,8899.03,0.0
6969,8900.56,0.0
6970,8901.01,0.0
6971,8902.53,0.0
6972,8904.06,0.0
6973,8906.12,0.0
6974,8907.57,0.0
6975,8910.55,0.0
6976,8912.63,0.0
6977,8913.55,0.0
6978,8916.02,0.0
6979,8917.04,0.0
6980,8919.03,0.0
6981,8920.53,0.0
6982,8921.04,0.0
6983,8922.53,0.0
6984,8924.53,0.0
6985,8925.0,0.0
6986,8926.54,0.0
6987,8928.51,0.0
6988,8929.0,0.0
6989,8929.51,0.0
6990,8931.01,0.0
6991,8932.6,0.0
6992,8933.1,0.0
6993,8934.06,0.0
6994,8935.02,0.0
6995,8936.03,0.0
6996,8937.05,0.0
6997,8939.0,0.0
6998,8940.57,0.0
6999,8942.53,0.0
7000,8944.53,0.0
7001,8946.51,0.0
7002,8948.5,0.0
7003,8950.52,0.0
7004,8951.05,0.0
7005,8952.52,0.0
7006,8953.04,0.0
7007,8954.64,0.0
7008,8955.14,0.0
7009,8956.0,0.0
7010,8957.01,0.0
7011,8958.59,0.0
7012,8960.55,0.0
7013,8962.6,0.0
7014,8963.02,0.0
7015,8964.6,0.0
7016,8965.07,0.0
7017,8966.21,0.0
7018,8967.05,0.0
7019,8968.02,0.0
7020,8969.06,0.0
7021,8970.52,0.0
7022,8971.01,0.0
7023,8971.51,0.0
7024,8974.55,0.0
7025,8975.0,0.0
7026,8976.56,0.0
7027,8977.07,0.0
7028,8978.06,0.0
7029,8980.02,0.0
7030,8981.04,0.0
7031,8982.57,0.0
7032,8983.04,0.0
7033,8984.53,0.0
7034,8985.0,0.0
7035,8986.02,0.0
7036,8987.0,0.0
7037,8988.67,0.0
7038,8989.01,0.0
7039,8990.55,0.0
7040,8991.02,0.0
7041,8992.5,0.0
7042,8993.03,0.0
7043,8994.01,0.0
7044,8995.05,0.0
7045,8996.5,0.0
7046,8998.08,0.0
7047,8999.03,0.0
7048,9000.05,0.0
7049,9002.51,0.0
7050,9004.0,0.0
7051,9005.04,0.0
7052,9006.64,0.0
7053,9007.11,0.0
7054,9007.5,0.0
7055,9009.02,0.0
7056,9010.51,0.0
7057,9011.03,0.0
7058,9012.1,0.0
7059,9013.61,0.0
7060,9015.05,0.0
7061,9016.58,0.0
7062,9017.13,0.0
7063,9018.11,0.0
7064,9020.54,0.0
7065,9021.01,0.0
7066,9024.5,0.0
7067,9025.01,0.0
7068,9025.57,0.0
7069,9027.02,0.0
7070,9028.5,0.0
7071,9029.09,0.0
7072,9032.6,0.0
7073,9033.12,0.0
7074,9034.53,0.0
7075,9035.02,0.0
7076,9036.54,0.0
7077,9040.55,0.0
7078,9042.04,0.0
7079,9043.07,0.0
7080,9044.53,0.0
7081,9045.04,0.0
7082,9046.54,0.0
7083,9047.08,0.0
7084,9048.59,0.0
7085,9049.07,0.0
7086,9050.5,0.0
7087,9051.0,0.0
7088,9052.62,0.0
7089,9053.08,0.0
7090,9054.06,0.0
7091,9055.01,0.0
7092,9056.64,0.0
7093,9057.01,0.0
7094,9058.65,0.0
7095,9060.57,0.0
7096,9062.56,0.0
7097,9064.53,0.0
7098,9066.59,0.0
7099,9067.08,0.0
7100,9068.55,0.0
7101,9071.0,0.0
7102,9072.55,0.0
7103,9073.2,0.0
7104,9074.53,0.0
7105,9076.03,0.0
7106,9077.07,0.0
7107,9078.59,0.0
7108,9079.1,0.0
7109,9080.56,0.0
7110,9082.54,0.0
7111,9084.59,0.0
7112,9086.06,0.0
7113,9087.53,0.0
7114,9089.07,0.0
7115,9090.05,0.0
7116,9091.11,0.0
7117,9092.54,0.0
7118,9093.0,0.0
7119,9094.55,0.0
7120,9096.09,0.0
7121,9098.59,0.0
7122,9100.07,0.0
7123,9101.04,0.0
7124,9102.51,0.0
7125,9103.14,0.0
7126,9104.06,0.0
7127,9106.09,0.0
7128,9107.04,0.0
7129,9108.51,0.0
7130,9112.54,0.0
7131,9113.08,0.0
7132,9114.0,0.0
7133,9115.04,0.0
7134,9116.08,0.0
7135,9118.05,0.0
7136,9119.01,0.0
7137,9119.56,0.0
7138,9122.01,0.0
7139,9124.54,0.0
7140,9125.01,0.0
7141,9126.51,0.0
7142,9127.04,0.0
7143,9128.01,0.0
7144,9130.04,0.0
7145,9131.02,0.0
7146,9132.54,0.0
7147,9133.02,0.0
7148,9134.54,0.0
7149,9136.56,0.0
7150,9138.56,0.0
7151,9140.04,0.0
7152,9142.56,0.0
7153,9143.02,0.0
7154,9146.52,0.0
7155,9147.05,0.0
7156,9148.53,0.0
7157,9149.0,0.0
7158,9150.57,0.0
7159,9152.56,0.0
7160,9154.03,0.0
7161,9155.03,0.0
7162,9156.14,0.0
7163,9158.5,0.0
7164,9159.02,0.0
7165,9160.07,0.0
7166,9161.04,0.0
7167,9162.6,0.0
7168,9163.09,0.0
7169,9164.09,0.0
7170,9166.59,0.0
7171,9167.08,0.0
7172,9168.02,0.0
7173,9169.66,0.0
7174,9171.1,0.0
7175,9172.54,0.0
7176,9173.17,0.0
7177,9174.67,0.0
7178,9175.15,0.0
7179,9176.55,0.0
7180,9177.0,0.0
7181,9178.62,0.0
7182,9180.17,0.0
7183,9181.1,0.0
7184,9182.54,0.0
7185,9183.17,0.0
7186,9184.54,0.0
7187,9185.02,0.0
7188,9186.08,0.0
7189,9187.12,0.0
7190,9188.55,0.0
7191,9189.04,0.0
7192,9190.58,0.0
7193,9192.59,0.0
7194,9193.0,0.0
7195,9194.07,0.0
7196,9196.54,0.0
7197,9197.11,0.0
7198,9198.04,0.0
7199,9199.11,0.0
7200,9200.57,0.0
7201,9202.04,0.0
7202,9204.5,0.0
7203,9206.0,0.0
7204,9207.5,0.0
7205,9209.08,0.0
7206,9210.52,0.0
7207,9212.05,0.0
7208,9214.1,0.0
7209,9215.05,0.0
7210,9216.58,0.0
7211,9218.53,0.0
7212,9219.06,0.0
