,BIT_DEPTH,cost
0,554.07,3145.4779953031593
1,555.01,7.071769815418169
2,556.11,4.600478626233169
3,557.34,4.259147809340394
4,558.59,1.8328487016014656
5,559.14,285.1307103150093
6,645.12,264.56220568335607
7,668.85,0.6927116458960894
8,669.07,4.692848020434227
9,670.57,1.4751325919586682
10,671.04,5.556548337067279
11,672.59,1.7300000000000655
12,673.07,6.073340292275217
13,674.54,13.303192019950336
14,677.12,5.788923689219637
15,678.73,12.244517550092269
16,682.64,6.8761424332344845
17,684.62,16.659449326303495
18,688.86,1.2186420734616459
19,689.22,6.658385093167701
20,691.22,5.08640669583388
21,692.54,2.3272750731123164
22,693.19,5.153311925012838
23,694.62,1.8307198952878636
24,695.15,5.5706578220011735
25,696.63,2.274915254237449
26,697.21,5.142072653199555
27,698.66,13.269114544644227
28,702.77,9.52678916461458
29,705.25,6.1594570582425865
30,706.56,9.038893280632754
31,708.84,1.3095632300660394
32,709.21,6.660144927535999
33,711.16,5.769220065910212
34,712.7,9.081895604395473
35,715.24,5.854258895047498
36,716.83,1.2185055643879634
37,717.19,4.816894329896799
38,718.6,1.921545283984179
39,719.14,23.658142662248967
40,725.17,12.340974367679575
41,728.65,1.963299947285468
42,729.19,5.08650512581516
43,730.53,1.8304594133170051
44,731.08,5.15675575591689
45,732.59,1.5717346460381545
46,733.06,13.065769054528882
47,737.03,5.860097714186022
48,738.65,1.2732420091324683
49,739.01,6.271537232980835
50,740.58,1.8223882601185986
51,741.05,15.30827499097797
52,745.18,5.7780657981895835
53,746.52,2.2971866546438404
54,747.14,5.371286996371916
55,748.53,8.54040073604589
56,750.63,6.951521739130452
57,752.5,1.8547687861271676
58,753.0,5.747399331809539
59,754.58,1.6041217798591656
60,755.06,5.251992930483116
61,756.55,2.323835616438574
62,757.23,5.435539287457045
63,758.81,0.9049074397485155
64,759.06,14.11653262906808
65,763.03,6.409155384926376
66,764.62,7.841238670695047
67,766.57,8.629710801938165
68,769.15,5.220960698689871
69,770.55,1.7800819252432156
70,771.05,7.585097690941568
71,773.12,15.232934051144051
72,776.61,1.9377053377979483
73,777.1,14.033936806148379
74,781.04,7.478379446640272
75,782.55,1.914849785408077
76,783.07,5.365391539153663
77,784.52,2.395122606049674
78,785.17,5.097297663393352
79,786.61,2.5218584070794297
80,787.3,5.143703703703898
81,788.74,1.2027981728980994
82,789.08,13.509135521611787
83,793.01,8.15594936708877
84,795.09,6.075454545454438
85,796.62,1.557184115523314
86,797.04,6.19724342349013
87,798.68,9.113912719134996
88,801.08,8.6077492991589
89,803.23,67.29879044856068
90,818.71,1.5189073205912993
91,819.12,5.792605599611385
92,820.81,1.3071022502962535
93,821.14,6.002334630350422
94,822.94,0.8878489702516563
95,823.21,4.561838415955876
96,824.65,1.2741281438807497
97,825.06,5.793282904690265
98,826.57,1.3727068108738536
99,827.0,8.27751699320292
100,829.07,9.307797029702844
101,830.72,2.981578947368615
102,831.07,4.8076712904580345
103,832.62,1.7252492906365517
104,833.19,4.746779661016658
105,834.53,2.3147524545646894
106,835.09,13.655798851712296
107,838.53,2.6879713603822464
108,839.07,19.188250863060457
109,842.68,2.5014201183433933
110,843.14,8.289763779527425
111,844.54,2.6942553191493217
112,845.08,7.240249091852154
113,846.56,2.5951065845573096
114,847.13,6.5798837209300425
115,848.55,2.4531710615283187
116,849.11,6.184688995215211
117,850.51,2.9973381494861804
118,851.09,8.298911465892353
119,852.64,1.810053705692872
120,853.0,8.117351225204152
121,854.51,11.3615769017215
122,856.71,2.200469458521977
123,857.15,6.013018526886599
124,858.52,11.234868509777696
125,861.09,20.418378378378193
126,865.13,8.942837306179126
127,867.13,17.547463617463393
128,871.06,8.400046403712564
129,872.63,2.24711212048773
130,873.12,10.04681146828842
131,875.0,10.046308926780405
132,877.11,9.339186785260509
133,878.73,7.841346901440577
134,880.5,28.030090556274274
135,887.12,6.972786885245616
136,888.56,7.944952538176039
137,890.5,8.344807133969194
138,892.53,2.518934700245331
139,893.11,6.532431223439946
140,894.61,1.681675866637168
141,895.0,8.557709119809168
142,897.15,8.868209408194343
143,899.0,20.00043627031632
144,902.79,23.878226351351426
145,908.52,24.487793427230436
146,912.82,18.450728616683836
147,916.54,2.7844660194175814
148,917.14,7.923065943477019
149,918.64,2.4330769230768796
150,919.15,7.010201005025255
151,920.62,2.3423900672530635
152,921.1,7.282404600104637
153,922.58,1.7560518444663642
154,923.02,35.554333565945896
155,930.94,23.64690149824626
156,935.03,10.032477876106396
157,936.62,3.137325905292683
158,937.32,5.65082596615283
159,938.5,2.828284182305531
160,939.15,15.000756686236063
161,942.67,10.334033107600046
162,944.84,11.994866684621577
163,947.22,7.314550408718993
164,948.54,2.579211058665008
165,949.13,8.407959275005377
166,951.06,7.38628655755313
167,952.53,10.328664704308565
168,954.59,13.047446221731748
169,957.13,8.354532374100618
170,958.65,1.956360187458354
171,959.1,6.714740406320391
172,960.51,2.8072844457174146
173,961.04,7.838411214953714
174,962.57,2.3940682095003307
175,963.0,9.077172457762483
176,964.57,3.0741670810540946
177,965.22,5.281584633853287
178,966.54,2.8987462863934175
179,967.27,4.7117890167956915
180,968.5,2.2086248492157403
181,969.05,6.1635845213853155
182,970.57,8.975922865013693
183,972.59,2.454007744433562
184,973.12,6.564227129337709
185,974.7,2.2287148955290546
186,975.21,15.20497587870416
187,978.63,1.8044943820223693
188,979.03,7.121141345427104
189,980.52,2.5933924656168115
190,981.17,6.873821989529125
191,983.07,7.014483207497802
192,984.5,2.8233535409201305
193,985.05,8.208075601374933
194,986.6,2.722767974716657
195,987.15,20.74937447168231
196,991.12,6.723314403717066
197,992.5,11.668063164679342
198,994.5,3.495449770190602
199,995.09,24.334562737642692
200,999.32,7.076156659554911
201,1000.59,2.561589627959461
202,1001.08,7.779028508164914
203,1002.59,2.861378299120087
204,1003.12,8.459480358799876
205,1004.62,12.01236311239222
206,1006.69,14.714288631722065
207,1009.1,8.840884955752005
208,1010.64,10.912915340547343
209,1012.53,12.263407707910641
210,1014.55,16.48020597322387
211,1017.23,8.62632051742738
212,1018.58,2.523757609297225
213,1019.07,7.397771952817823
214,1020.57,2.018192252510489
215,1021.01,8.297898089172044
216,1022.62,1.9660800190519265
217,1023.05,6.862080599812477
218,1024.57,7.176506024095792
219,1025.12,6.186364782517374
220,1026.61,3.395436893204562
221,1027.02,10.103029510646067
222,1028.55,2.8555276381909547
223,1029.05,8.767759687398295
224,1030.54,2.8839796567069294
225,1031.04,9.312543741587936
226,1032.58,2.9975242718444584
227,1033.12,7.782401325700965
228,1034.53,2.6063259429888186
229,1035.02,7.995381062355659
230,1036.52,2.994545454545253
231,1037.06,8.7250105517042
232,1038.64,2.470353187667364
233,1039.09,8.003354603464295
234,1040.53,3.0346872297488683
235,1041.1,8.063593932322053
236,1042.6,2.6156977704376083
237,1043.11,7.646548360877764
238,1044.62,2.5356443083774476
239,1045.11,8.4416831683175
240,1046.72,1.564722072314889
241,1047.03,7.60583446404342
242,1048.53,2.5645131244708352
243,1049.02,8.01114810562567
244,1050.53,2.598452088452042
245,1051.04,7.4547718174540085
246,1052.53,2.7060986547084256
247,1053.05,7.806186931348128
248,1054.57,3.115889145496782
249,1055.03,9.072339261286022
250,1056.51,2.945373134328255
251,1057.03,8.814357084357177
252,1058.76,1.4611111111107313
253,1059.11,5.117916666666929
254,1060.53,1.9908599779491807
255,1061.06,6.258137254901813
256,1062.6,2.163816651075854
257,1063.08,7.033552184741374
258,1064.68,1.603701159295336
259,1065.06,6.451724211880649
260,1066.59,2.513902010541092
261,1067.23,5.172642706131343
262,1068.65,1.279463281130797
263,1069.04,5.505902131921591
264,1070.79,1.1384143222504128
265,1071.11,6.267713027275008
266,1072.88,0.610664206641511
267,1073.07,5.1330487266307925
268,1074.67,1.752616940581481
269,1075.19,5.255179282868372
270,1076.74,1.075684175860176
271,1077.05,6.004159292035592
272,1078.74,2.057965673902374
273,1079.17,6.698044806516697
274,1080.56,2.7243906209737103
275,1081.12,6.985952380952467
276,1082.6,2.14300225733656
277,1083.05,7.9006015037597885
278,1084.71,2.3316318986006106
279,1085.18,6.816441717790707
280,1086.59,2.0932150060507535
281,1087.11,5.601720685559686
282,1088.69,2.217208212452538
283,1089.2,5.7236501079909745
284,1090.55,2.4807830709471546
285,1091.16,5.55437534097112
286,1092.65,1.8958754603279606
287,1093.19,4.771995133819514
288,1094.58,2.4317647058822676
289,1095.1,7.455773889636701
290,1096.58,3.213091482650292
291,1097.23,6.647713841368096
292,1098.59,2.7063546402791063
293,1099.13,7.213683250845593
294,1100.6,2.1013450760612127
295,1101.02,7.711520170985657
296,1102.56,2.5221083850094366
297,1103.06,7.889839816933518
298,1104.84,1.190992824962966
299,1105.18,4.548780251693846
300,1106.51,2.5509235352530553
301,1107.05,12.769801699717963
302,1108.63,1.7384880489153427
303,1109.09,5.61482758620683
304,1110.61,1.786982530439419
305,1111.1,5.157175728651943
306,1112.55,1.777861288882127
307,1113.1,4.845676167374226
308,1114.58,1.7059371614302543
309,1115.04,5.764317343173329
310,1116.57,2.064855822144036
311,1117.05,6.644890047608213
312,1118.56,17.63368620037859
313,1120.74,1.1104143044046713
314,1121.0,6.079058473736264
315,1122.53,2.0454189944135264
316,1123.0,7.6654986276304555
317,1124.73,1.3076583882408712
318,1125.1,5.1314179104483975
319,1126.64,1.6280104712035304
320,1127.09,6.522382739212147
321,1128.8,1.3059359067739975
322,1129.15,4.827029231814737
323,1130.51,2.4285904129094416
324,1131.23,4.543834518226781
325,1132.62,2.2634370345857873
326,1133.27,4.619745032530266
327,1134.54,2.294554874180398
328,1135.09,6.488787878788392
329,1136.7,1.7567281985989713
330,1137.12,5.760956593293895
331,1138.53,2.4499269040319027
332,1139.07,7.353395077391394
333,1140.6,2.6190374331551793
334,1141.08,7.789206349206645
335,1142.52,3.141837455829995
336,1143.1,7.7549123311298285
337,1144.56,2.4020707596254347
338,1145.05,7.832676611314382
339,1146.55,2.3550267379680507
340,1147.02,7.818449873631002
341,1148.52,2.599999999999909
342,1149.04,6.915916685740202
343,1150.6,2.1825050653901563
344,1151.18,5.265734597155978
345,1152.55,1.747828843106247
346,1153.03,5.374728174251914
347,1154.5,2.205787893947355
348,1155.13,5.228733535966839
349,1156.61,1.82201347195835
350,1157.18,4.324878801233733
351,1158.53,2.4891333123227533
352,1159.27,4.3023094688220205
353,1160.57,1.597691633047032
354,1161.01,6.043781512604731
355,1162.6,2.0312372396896694
356,1163.1,6.918773523686382
357,1164.73,1.2709967141289384
358,1165.07,5.5070273055124925
359,1166.61,1.7871131639729183
360,1167.15,4.678375401559839
361,1168.57,1.6599771167050514
362,1169.0,6.1552895752892915
363,1170.58,1.7172499582568361
364,1171.07,6.049392364223348
365,1172.71,1.1375493860115458
366,1173.02,5.997066950053501
367,1174.66,1.7013740458015914
368,1175.14,5.675407209612434
369,1176.76,1.1357858284494537
370,1177.07,5.902839059675043
371,1178.66,2.5455037647896104
372,1179.35,3.9828423101884707
373,1180.51,2.434280140460862
374,1181.13,6.596820307281151
375,1182.65,2.6779549013455557
376,1183.12,8.403083823074596
377,1184.61,2.3214322250640267
378,1185.09,6.55885298869156
379,1186.56,2.09303313508921
380,1187.06,6.658591184097496
381,1188.63,2.062825588664305
382,1189.13,7.079447315209588
383,1190.75,1.077610062893044
384,1191.01,6.469577464788579
385,1192.55,2.093710157246069
386,1193.05,6.528123515439276
387,1194.59,1.8851739026149124
388,1195.0,6.493821989528718
389,1196.52,5.891804457225017
390,1197.02,20.038064516128674
391,1198.55,6.1018642681934505
392,1199.01,20.172199170124482
393,1200.51,6.765664160401002
394,1201.01,20.91344594594557
395,1202.54,6.464897959184049
396,1203.01,20.35075949367101
397,1204.5,7.386999154690965
398,1205.04,19.863361344538312
399,1206.5,7.359896907216116
400,1207.03,20.543708439897824
401,1208.52,6.664465004022407
402,1209.03,18.530691244239858
403,1210.51,6.866623270951753
404,1211.03,19.999411764706252
405,1212.5,6.971148648648524
406,1213.01,21.260259740259485
407,1214.53,6.7761506276150625
408,1215.03,21.326272965879138
409,1216.54,6.2975634517771475
410,1217.0,21.223865546217745
411,1218.56,2.09193626854801
412,1219.01,7.4527222362122805
413,1220.57,2.127597254004657
414,1221.05,7.03227763126336
415,1222.58,2.2462165308498254
416,1223.08,6.348648648648847
417,1224.53,2.541332979288324
418,1225.04,8.490796019900966
419,1226.69,2.1103041194352476
420,1227.1,7.406509274873904
421,1228.52,2.834540059347082
422,1229.04,9.94036585365866
423,1230.52,4.358582677165202
424,1231.04,13.597037037036563
425,1232.6,3.7853846153852713
426,1233.02,13.368638743455415
427,1234.53,4.040724637681234
428,1235.02,13.772072538859545
429,1236.59,1.80062767475039
430,1237.08,6.014720812182902
431,1238.78,1.3282518043307336
432,1239.17,4.666951219511687
433,1240.59,2.029378054198486
434,1241.22,4.739917961249585
435,1242.53,2.2271701565356974
436,1243.08,7.425382606424609
437,1244.59,2.291705426356722
438,1245.06,7.6798239136610835
439,1246.52,3.4441751042293043
440,1247.15,7.8229775621580755
441,1248.56,2.9069319640564824
442,1249.06,9.142220804085133
443,1250.64,2.1022097378270956
444,1251.01,8.695567322238679
445,1252.58,2.600553037171502
446,1253.05,8.06558291308227
447,1254.53,3.1665556612747143
448,1255.08,8.264473007712507
449,1256.5,3.102781456953534
450,1257.02,9.137480719793974
451,1258.59,2.8651844843897822
452,1259.09,8.311616939365145
453,1260.52,3.875272067714311
454,1261.07,13.588481439820537
455,1262.51,5.284784688994943
456,1263.04,16.018636363636077
457,1264.57,4.491916167665124
458,1265.02,15.243846153846247
459,1266.51,5.342596336070656
460,1267.02,14.959052823315304
461,1268.5,5.503235294117276
462,1269.04,15.08951822112443
463,1270.51,5.665118733509037
464,1271.03,15.85356164383591
465,1272.5,5.885966268446838
466,1273.01,17.420149679258834
467,1274.5,6.405831485587253
468,1275.03,24.321361639823976
469,1277.06,21.99500000000123
470,1279.18,10.171966053747326
471,1281.12,10.286748681898693
472,1282.76,1.0192307692307692
473,1283.01,6.7005101617590554
474,1284.64,1.9567953667950952
475,1285.23,4.865388026607401
476,1286.52,1.7807641196012973
477,1287.03,4.866550088915205
478,1288.54,1.9939444173571366
479,1289.12,4.611489361702365
480,1290.54,2.2324538207269526
481,1291.11,6.5919512195123176
482,1292.58,38.07993907083051
483,1300.5,353.2758620689655
484,1330.5,3.5932860520093306
485,1331.02,9.283724205698935
486,1332.59,2.2082486517176685
487,1333.01,18.040273074822316
488,1336.55,2.605004009623004
489,1337.07,7.855399515739369
490,1338.63,10.150489510488827
491,1340.52,10.023535704733886
492,1342.52,3.4292307692311947
493,1343.18,16.52953488372031
494,1346.57,2.088349514563318
495,1347.02,7.292484076432865
496,1348.58,9.052960601230591
497,1350.63,1.9624355814466636
498,1351.08,7.178800557880668
499,1352.68,1.6205633168088953
500,1353.05,6.638159397122631
501,1354.55,2.272415187598213
502,1355.07,6.428806133625411
503,1356.57,2.3073306505699684
504,1357.1,8.700317634173913
505,1359.13,6.099830508473778
506,1360.59,2.2949238578687794
507,1361.14,5.894526706536723
508,1362.58,1.7388193426839937
509,1363.0,6.1497210167389955
510,1364.5,2.141595378065975
511,1365.03,6.841944619257772
512,1366.68,2.130418221087624
513,1367.22,5.367249048286588
514,1368.56,2.2662766605726006
515,1369.12,6.553705220061931
516,1370.73,1.1447313156268186
517,1371.01,6.258154613466259
518,1372.53,2.205296950240588
519,1373.08,5.9511764705882
520,1374.59,1.8117107121244518
521,1375.04,6.294772065955881
522,1376.65,7.772583249242529
523,1378.58,2.1952983725135624
524,1379.08,6.878570751362841
525,1380.59,2.139740093736647
526,1381.1,5.9205566218813415
527,1382.51,2.3442583732055478
528,1383.06,17.93976497346531
529,1384.51,4.701987921489295
530,1385.06,12.994584801207697
531,1386.58,3.592205438067088
532,1387.0,12.994584801207697
533,1388.52,17.183628585807675
534,1390.53,4.105377643504687
535,1391.01,30.092722697533816
536,1394.53,5.237499999999567
537,1395.08,9.981093247588936
538,1396.5,5.057611940297873
539,1397.08,9.699099068002392
540,1398.65,3.7191915641464703
541,1399.03,15.78759951010364
542,1400.58,4.557387173397035
543,1401.04,15.146363636363546
544,1402.55,21.353776908023676
545,1404.53,1.4854461667365455
546,1405.01,9.955072142064253
547,1406.53,2.6635283136280328
548,1407.0,8.999022082018563
549,1408.57,2.7735800344236883
550,1409.02,10.466610878661484
551,1410.7,2.7679945054947854
552,1411.15,8.177614213197078
553,1412.57,3.2627887729398486
554,1413.08,8.164605678233245
555,1414.62,2.484861388968421
556,1415.09,7.779911190053633
557,1416.52,2.77433526011551
558,1417.04,8.471074426413551
559,1418.67,2.234384455650349
560,1419.08,8.075944700461136
561,1420.52,2.9364497041418143
562,1421.06,8.058571838256285
563,1422.58,2.601717171717557
564,1423.01,14.09669421487641
565,1424.71,2.072893530311056
566,1425.14,6.451719990377048
567,1426.54,2.4902634054560497
568,1427.09,6.8820386007238055
569,1428.58,2.029606540623755
570,1429.0,7.452231163130519
571,1430.6,2.4141323461369018
572,1431.14,6.44180163785175
573,1432.6,1.9895943249835313
574,1433.06,6.910810089740522
575,1434.55,2.0557668215800806
576,1435.06,6.547389316151087
577,1436.65,1.7065019399626145
578,1437.07,6.196305572949279
579,1438.57,1.9053288646838542
580,1439.03,6.385814977973418
581,1440.57,1.8391944032226153
582,1441.01,6.758601747815643
583,1442.65,2.072903225805591
584,1443.11,6.144721289456367
585,1444.52,2.445098743267266
586,1445.08,6.154098646879325
587,1446.52,2.2452820172527415
588,1447.04,7.1573431241659495
589,1448.69,2.225290773939581
590,1449.21,5.499266913204108
591,1450.5,2.6412997174522626
592,1451.12,5.8268313641250575
593,1452.5,2.142935377875137
594,1453.0,7.063548387096298
595,1454.62,2.1365053763441257
596,1455.11,6.385775978407716
597,1456.57,2.109656236227452
598,1457.06,6.909539170507459
599,1458.67,2.021496478873357
600,1459.14,5.922481331341399
601,1460.55,2.4919987105099635
602,1461.14,5.830742932280964
603,1462.5,2.5333004041308005
604,1463.08,6.21945921586332
605,1464.5,2.4744226731978363
606,1465.05,7.819822576498433
607,1466.66,2.403602994445702
608,1467.18,6.3833932528929065
609,1468.54,2.4230769230769234
610,1469.04,8.182556226001795
611,1470.64,1.9906680805931707
612,1471.04,8.177937868238363
613,1472.67,1.7666163063292826
614,1473.03,7.4883896940419135
615,1474.52,3.1056338828875734
616,1475.11,7.431016657094107
617,1476.51,2.9975081610441974
618,1477.1,7.885077899596173
619,1478.58,2.550275674038372
620,1479.04,8.565561005517935
621,1480.57,2.582803738317855
622,1481.05,9.12989662301872
623,1482.53,1.6516977552958636
624,1483.17,4.606829268292234
625,1484.85,0.5822964188631194
626,1485.06,4.019132947976953
627,1486.53,2.469584931984903
628,1487.43,4.610723626852659
629,1489.18,3.232136636947632
630,1490.445,1.8934136107603035
631,1491.14,3.177503526092712
632,1492.29,2.4820930505100365
633,1493.19,11.498179391350556
634,1497.02,6.573186743148235
635,1498.59,2.211973969631159
636,1499.11,13.78991423670721
637,1500.55,1.9181551561019616
638,1501.12,4.5438311688311686
639,1502.62,1.4328800137720592
640,1503.02,5.635746911269256
641,1504.5,2.24501440922218
642,1505.16,5.617652481179304
643,1506.86,0.538155387246673
644,1507.05,5.765315629081554
645,1509.24,3.4252453549311186
646,1510.65,1.701225986726485
647,1511.12,5.566931582585312
648,1512.67,1.585598923283343
649,1513.12,5.76960072595349
650,1514.67,1.6821041445272316
651,1515.13,5.202397147558492
652,1516.52,2.2002620087333193
653,1517.11,6.8126267880369005
654,1518.5,3.5039618138430297
655,1519.14,10.798447488583513
656,1521.08,7.068801261829968
657,1522.51,2.5185051294575733
658,1523.05,8.750371632083981
659,1524.6,2.665792349726877
660,1525.08,8.252319859402313
661,1526.61,2.0716440049446323
662,1527.05,6.274408918805178
663,1528.56,2.319838274932798
664,1529.02,8.069841999425355
665,1530.54,2.305095057034308
666,1531.02,8.26755844924524
667,1532.54,2.771665034280278
668,1533.01,9.687906895344483
669,1534.56,2.69941348973607
670,1535.06,8.474581525108494
671,1536.56,2.9606299212598426
672,1537.06,8.967352445194038
673,1538.54,3.6672959545772548
674,1539.12,8.85115761053009
675,1540.58,2.695384615384717
676,1541.06,8.394599406527991
677,1542.6,1.7207416879798831
678,1543.01,6.464310239116774
679,1544.6,2.1015781747004816
680,1545.05,7.056927636453445
681,1546.55,2.2212333736397456
682,1547.03,6.9657931516420035
683,1548.58,2.0697277059225163
684,1549.05,6.905219941349058
685,1550.53,2.503636363636195
686,1551.07,7.234285714285628
687,1552.59,2.1245329249619784
688,1553.03,7.5172301425659285
689,1554.59,2.264349707304789
690,1555.06,6.748577638251798
691,1556.52,2.633564228482635
692,1557.06,7.5112353401093275
693,1558.59,2.196722879436368
694,1559.05,6.933330029732536
695,1560.52,2.616433700334796
696,1561.09,6.613855157279051
697,1562.51,2.5416396761132294
698,1563.04,7.318463925523662
699,1564.54,2.5752791355800064
700,1565.07,7.248301886792587
701,1566.54,2.609472274310115
702,1567.06,7.52474058467202
703,1568.58,2.466754966887511
704,1569.06,8.111588758244764
705,1570.59,2.143147410358883
706,1571.02,8.103478717814472
707,1572.66,1.469527418635634
708,1573.21,3.572563625077243
709,1574.61,2.025763929109257
710,1575.35,2.612885410514038
711,1576.405,1.7345556690501305
712,1577.0,7.219507389162487
713,1578.77,1.2443212016173146
714,1579.09,5.676721737516242
715,1580.59,1.6936972783702053
716,1581.09,5.115936288555697
717,1582.54,2.2311618418493717
718,1583.11,5.857074377021921
719,1584.63,1.7399109627149147
720,1585.09,5.550313949339959
721,1586.6,1.8103994201971727
722,1587.13,5.032593800978134
723,1588.59,2.19404888416628
724,1589.19,5.930564064250821
725,1590.75,0.936672325976089
726,1591.05,5.458219868885367
727,1592.6,1.735668016194589
728,1593.03,16.286195214906158
729,1596.93,0.6327986906710551
730,1597.17,4.18241592312962
731,1598.71,1.109583564685977
732,1599.07,5.0989309576842405
733,1600.65,1.196820083681676
734,1601.01,5.413658310121068
735,1602.64,2.3356846473024144
736,1603.29,4.760782459157092
737,1604.62,1.8209395973156068
738,1605.3,3.3855269548325713
739,1606.5,1.7612333566926368
740,1607.14,4.432338072669854
741,1608.63,1.1130713616277346
742,1609.0,5.151055718474753
743,1610.61,1.3062075215227256
744,1611.01,5.166303153023198
745,1612.64,1.7209237875288081
746,1613.16,4.9069836369250375
747,1614.64,2.258419457492994
748,1615.33,5.040771746239497
749,1616.79,1.1953846153843517
750,1617.12,5.476272774597318
751,1618.64,2.1732410086811615
752,1619.17,5.2556184654977045
753,1620.71,1.1988354555571368
754,1621.13,4.40605773032757
755,1622.61,1.2362369337981904
756,1623.01,4.991433778858111
757,1624.66,1.7836524626450447
758,1625.24,4.065187885585921
759,1626.55,1.7587782124585034
760,1627.09,4.821047737135922
761,1628.54,2.332194616977552
762,1629.19,4.971879229567508
763,1630.57,2.8825259954356035
764,1631.17,6.953209739899919
765,1632.52,3.377189445598035
766,1633.14,8.213156843156188
767,1634.51,3.766369626608563
768,1635.17,7.721493076459211
769,1636.57,24.1807729302649
770,1640.5,3.3818576632114565
771,1641.15,6.187349027635546
772,1642.67,1.3891460290345592
773,1643.06,5.280189787619003
774,1644.68,1.2185721798575742
775,1645.09,4.68271326516316
776,1646.6,1.3337410676756916
777,1647.03,4.589536621824008
778,1648.63,1.4441150969978214
779,1649.18,3.73031916021586
780,1650.62,1.3887903764763885
781,1651.14,3.508725510848699
782,1652.5,1.4035428800962682
783,1653.06,3.830982554642001
784,1654.59,2.1272192099151273
785,1655.23,4.416925091671059
786,1656.72,1.3572566371681667
787,1657.21,2.8833179723501297
788,1658.25,2.0772830420114916
789,1659.07,4.925664335664786
790,1660.66,1.6967448539971277
791,1661.16,5.618081366147345
792,1662.76,6.009871912168263
793,1664.79,1.16231626179838
794,1665.14,4.847347635299354
795,1666.55,1.8712099644127782
796,1667.06,5.3983597795221705
797,1668.6,1.7235849056605517
798,1669.05,6.172655233589376
799,1670.61,2.2364268192975505
800,1671.16,4.801489125257455
801,1672.58,2.099790660226046
802,1673.15,5.2802660753875115
803,1674.55,1.3426682134571015
804,1675.04,4.253967593606642
805,1676.65,1.352165196470985
806,1677.1,4.501463301151839
807,1678.74,1.3807069555303877
808,1679.18,4.169113778571863
809,1680.61,1.1772426322166927
810,1681.0,4.706137506987087
811,1682.52,2.4666666666665265
812,1683.32,3.665955056179973
813,1684.5,1.3589262966332114
814,1685.04,2.814231544978111
815,1686.16,1.4713863161037697
816,1686.75,4.793500686409235
817,1688.69,1.1574144037776626
818,1689.08,5.0103705558339735
819,1690.51,1.9613793103449018
820,1691.23,3.944469756480827
821,1692.7,1.3339705882353714
822,1693.17,3.6319472616630417
823,1694.52,1.7028640192540705
824,1695.2,2.9264856860808264
825,1696.51,1.2906950880443986
826,1697.05,4.314605331939526
827,1698.73,1.0946058732613677
828,1699.16,4.896882129277541
829,1700.92,0.6529004329005139
830,1701.14,3.9649150849147454
831,1702.52,1.8170368044218699
832,1703.15,4.272188949250869
833,1704.58,1.700624731336753
834,1705.12,5.190442477876751
835,1706.66,1.806757843925712
836,1707.26,3.8215405968078002
837,1708.5,1.815066828675302
838,1709.1,5.3321506550218345
839,1710.85,0.6125559105432371
840,1711.06,5.26291155752666
841,1712.84,0.6456125767980272
842,1713.07,5.1186950217500975
843,1714.89,0.6584586772056509
844,1715.13,4.752465373960623
845,1716.87,0.6462746868299534
846,1717.11,3.8733983286909295
847,1718.56,1.8823053589486962
848,1719.21,4.24566587766294
849,1720.69,1.393949579831884
850,1721.21,3.7196730365621034
851,1722.61,1.4232584269668296
852,1723.14,4.014150022869133
853,1724.73,0.7509957798328397
854,1725.05,3.724577229504233
855,1726.68,1.1995735607671816
856,1727.08,4.892610088070784
857,1728.71,1.16754774637132
858,1729.19,4.058696712742529
859,1730.67,1.9414842064502338
860,1731.4,2.533220338982585
861,1732.34,1.9914503133396213
862,1733.19,3.1669778869778193
863,1734.47,5.253390439347738
864,1737.05,3.0794040257859905
865,1738.6,1.9855899552804073
866,1739.33,3.9377044492738285
867,1740.78,0.860948191593353
868,1741.03,7.479483163665198
869,1742.93,0.6218723849373462
870,1743.14,3.34812648758928
871,1744.38,5.534070407040531
872,1746.71,1.0487785990845029
873,1747.09,4.444743589743645
874,1748.57,1.6171277411440264
875,1749.06,5.501384537645082
876,1750.62,1.8230666877877508
877,1751.16,4.63425227167674
878,1752.56,1.7073406310367032
879,1753.06,6.808709677419449
880,1755.03,0.34376479720575703
881,1755.17,4.283225806451245
882,1756.55,2.3198713826368733
883,1757.23,5.6542064390878375
884,1758.88,0.5976980198014366
885,1759.06,5.405976108142521
886,1760.67,1.7569172216935636
887,1761.19,5.263404255319024
888,1762.73,1.0698828308074733
889,1763.05,5.257704918032724
890,1764.57,1.8751077136899967
891,1765.09,5.39747126436831
892,1766.68,1.2059692724804396
893,1767.05,4.890138248847986
894,1768.53,3.076413199425726
895,1769.11,10.343334729786871
896,1770.53,3.0033377837116153
897,1771.03,9.48790790790747
898,1772.61,2.522102102102539
899,1773.03,9.48790790790747
900,1774.61,5.878563049853481
901,1775.1,5.75312958435233
902,1776.77,1.828283646389766
903,1777.28,4.272279100097847
904,1778.52,1.699616122840691
905,1779.02,5.555507776761388
906,1780.71,5.052306160822555
907,1782.61,1.5784051532652448
908,1783.1,6.838204283360886
909,1785.07,4.220962781368811
910,1786.65,1.3802616279070024
911,1787.14,5.439878934624417
912,1788.73,1.0939308398022338
913,1789.03,6.488640515851659
914,1790.79,1.2330950378474108
915,1791.14,4.837544725477467
916,1792.6,2.4703743618837506
917,1793.39,3.685768348623366
918,1794.56,1.7795062950917546
919,1795.13,5.439824051184502
920,1796.84,0.5727272727274753
921,1797.02,4.825942350332594
922,1798.52,2.3711535635562377
923,1799.26,4.222837236880939
924,1800.57,1.729951520493493
925,1801.11,4.80686440677975
926,1802.58,2.380516605166142
927,1803.3,4.428506453596055
928,1804.64,5.354488977955624
929,1806.5,2.84043549712427
930,1807.43,3.017216494845089
931,1808.54,1.1611086935957304
932,1809.02,4.123928734581952
933,1810.54,1.8379525737418168
934,1811.12,4.901109829922744
935,1812.67,1.1479870654806454
936,1813.05,5.344709569577992
937,1814.78,1.2150424846179875
938,1815.16,4.914990980156314
939,1816.67,1.2041758241754494
940,1817.05,5.51802738112772
941,1818.77,1.188463353488066
942,1819.14,4.629668138224519
943,1820.55,1.6980830670926517
944,1821.05,6.080078546882639
945,1822.81,0.8177187888846987
946,1823.13,3.544388849177639
947,1824.53,0.7352040940660155
948,1824.79,5.52233536477134
949,1826.78,1.1389990982871887
950,1827.13,4.965270291082705
951,1828.63,1.8033392539962716
952,1829.19,4.403658104516921
953,1830.56,2.47416125334391
954,1831.2,5.718440366972182
955,1832.79,1.1981188887168603
956,1833.15,4.805826251179809
957,1834.58,1.7738156892611143
958,1835.12,5.122506203474581
959,1836.66,1.1888681757653596
960,1837.0,5.5964359351984445
961,1838.62,1.557318435754383
962,1839.06,5.637524066230442
963,1840.51,1.7743261856314627
964,1841.04,5.354693366708842
965,1842.64,1.3066360505160781
966,1843.12,3.8342688558240536
967,1844.63,1.5048863864868018
968,1845.23,3.4649456240289798
969,1846.74,0.7119119351100562
970,1847.0,4.892279100097552
971,1848.86,0.5584693019345961
972,1849.04,5.491790510295468
973,1850.53,3.0066844919786098
974,1851.03,8.96241725175532
975,1852.52,2.941304347825844
976,1853.07,6.447218045113496
977,1854.63,1.6083632112231236
978,1855.04,6.684011208967465
979,1856.71,1.6817664730625785
980,1857.13,6.087307692307619
981,1858.65,2.201982378854444
982,1859.2,5.422807723249836
983,1860.55,4.310255241567556
984,1861.1,11.42813837050552
985,1862.56,2.78223351918678
986,1863.03,9.343127196064707
987,1864.52,4.945761707172496
988,1865.02,16.92235412474819
989,1866.55,5.020795660036166
990,1867.05,13.59039357845636
991,1868.6,4.194637096774271
992,1869.09,12.41822995461461
993,1870.54,3.807171903881845
994,1871.02,11.35258698321677
995,1872.61,2.956231884058483
996,1873.03,10.691359613837362
997,1874.55,3.932139702930167
998,1875.11,10.683987138265136
999,1876.63,2.8848490945663805
1000,1877.04,10.835774647887067
1001,1878.58,13.570530759952197
1002,1880.51,5.533557046979865
1003,1881.01,16.801501340482375
1004,1882.53,5.533557046979865
1005,1883.03,22.508227424748764
1006,1885.07,15.013513513513514
1007,1886.57,4.194637096774271
1008,1887.06,12.743776435045394
1009,1888.55,4.27453447408153
1010,1889.05,12.749445843828793
1011,1890.54,4.27643504531722
1012,1891.04,12.743776435045394
1013,1892.53,4.125014836795329
1014,1893.02,12.218342245988676
1015,1894.61,2.950120481928222
1016,1895.03,10.82083567697845
1017,1896.57,3.945570599614205
1018,1897.15,8.813266227003552
1019,1898.57,2.9523115577889993
1020,1899.06,9.108121435759756
1021,1900.57,2.964673020046007
1022,1901.07,9.037688442211056
1023,1902.57,2.9514869390489493
1024,1903.06,9.045271629778673
1025,1904.56,3.0100401606425704
1026,1905.06,8.969919678714913
1027,1906.55,3.49554959785616
1028,1907.13,8.543745819397063
1029,1908.55,3.007522567703109
1030,1909.05,9.870177316828972
1031,1910.69,1.8802662073281167
1032,1911.02,8.431824857220978
1033,1912.68,2.144277108433952
1034,1913.13,7.335283492222605
1035,1914.67,2.1016314199387516
1036,1915.11,6.7960726905606705
1037,1916.53,3.0641656942820377
1038,1917.1,8.702003872216899
1039,1918.59,3.0875704493528713
1040,1919.05,10.231601848286424
1041,1920.56,3.394979757085149
1042,1921.04,11.16591133004887
1043,1922.6,3.4501288763593063
1044,1923.09,7.386970172684459
1045,1924.59,1.7170450751252404
1046,1925.08,5.248240633767917
1047,1926.59,1.7742172429149656
1048,1927.14,5.125253623188199
1049,1928.71,1.299028882377789
1050,1929.13,4.373262087839862
1051,1930.61,1.2940665249469858
1052,1931.06,4.422096069868891
1053,1932.6,1.8244897959187822
1054,1933.2,4.269931153184356
1055,1934.63,1.2161060329063011
1056,1935.06,5.282311037216877
1057,1936.87,0.6099204361280668
1058,1937.06,5.0729992630808205
1059,1938.64,1.9981668479102144
1060,1939.24,4.379671440606826
1061,1940.65,1.9997726012200858
1062,1941.18,6.865836653386668
1063,1942.63,1.9697469563134062
1064,1943.06,7.546543456544148
1065,1944.65,2.5519193324058342
1066,1945.22,6.287444364680045
1067,1946.59,2.6558159912375854
1068,1947.11,7.5766013071895895
1069,1948.6,2.4231930562862103
1070,1949.09,7.461644286105968
1071,1950.55,3.060224019912675
1072,1951.09,7.618911511355631
1073,1952.64,2.2905943375835935
1074,1953.18,5.80268456375791
1075,1954.83,0.9447826086958409
1076,1955.24,3.527849879686152
1077,1956.87,0.6333381482017908
1078,1957.07,4.737602441150857
1079,1958.56,2.372206200432588
1080,1959.31,4.14229952830177
1081,1960.6,1.7656232514771977
1082,1961.13,5.099277864992089
1083,1962.65,1.813808532777821
1084,1963.02,9.633753134578537
1085,1964.88,0.5679400749058505
1086,1965.05,5.0336465463596465
1087,1966.56,1.802596964587327
1088,1967.14,4.89317172303661
1089,1968.68,1.6105752876439492
1090,1969.14,5.853496603503452
1091,1970.73,1.3634490238610586
1092,1971.28,3.3238448602059183
1093,1972.57,2.437830443772957
1094,1973.29,4.283964365256124
1095,1974.79,0.7806361520562566
1096,1974.95,5.088146214099298
1097,1976.67,1.2544322394613152
1098,1977.08,4.825686113394063
1099,1978.66,2.0645019920313556
1100,1979.35,3.6409716908951797
1101,1980.6,1.7984021304930853
1102,1981.2,5.14650395418615
1103,1982.89,0.5297122302153456
1104,1983.06,4.949339513325436
1105,1984.62,2.3617985106090806
1106,1985.38,4.087860034702025
1107,1986.67,1.2208355051353137
1108,1987.04,5.504966028412872
1109,1988.7,1.7920328542092712
1110,1989.26,4.209667250437626
1111,1990.58,1.6939915713425053
1112,1991.1,5.043824137382763
1113,1992.59,1.487812828601769
1114,1993.0,6.646484628604268
1115,1994.72,1.1952173913039759
1116,1995.1,4.445304247991073
1117,1996.51,4.08470437017961
1118,1997.06,10.262250803858777
1119,1998.52,3.369245585874927
1120,1999.0,10.621021721641126
1121,2000.51,3.6043046357615895
1122,2001.01,11.909580419580491
1123,2002.5,4.704078549848554
1124,2003.05,12.738112732763039
1125,2004.54,4.280241935483871
1126,2005.04,12.82930513595166
1127,2006.54,4.361963746223488
1128,2007.05,11.473041474654737
1129,2008.5,3.9348493370827824
1130,2009.06,10.195476477684277
1131,2010.51,4.368488512697326
1132,2011.13,9.773594692399588
1133,2012.52,3.525159106296105
1134,2013.1,8.972423836625431
1135,2014.59,2.527023411371675
1136,2015.01,9.747090301004055
1137,2016.63,2.068141135971786
1138,2017.02,8.743723129837111
1139,2018.67,2.5918015441807745
1140,2019.16,7.2019243986249
1141,2020.52,2.5418556701031894
1142,2021.0,8.266792777299797
1143,2022.56,2.541265387918791
1144,2023.04,7.731477663230434
1145,2024.5,3.0721226009735476
1146,2025.08,7.94145433724592
1147,2026.58,9.942466487935746
1148,2028.56,3.0131719876416625
1149,2029.05,9.597001828153683
1150,2030.53,3.1410804020097904
1151,2031.08,6.96429667519208
1152,2032.52,2.6161157024791226
1153,2033.07,6.972207399949834
1154,2034.53,3.4549052037112378
1155,2035.02,10.621021721641126
1156,2036.53,3.324251012145942
1157,2037.0,13.022238357536072
1158,2038.53,6.579478044739144
1159,2039.02,19.776129032257945
1160,2040.53,6.426995153473464
1161,2041.02,19.412148626817686
1162,2042.5,5.855157318741246
1163,2043.02,14.72751322751323
1164,2044.52,4.438218801539476
1165,2045.0,15.881827411167418
1166,2046.51,8.814907063195804
1167,2047.1,16.116187806588293
1168,2048.5,3.8617212012550426
1169,2049.0,11.910962566846317
1170,2050.55,3.8632286995515694
1171,2051.05,11.304968777875358
1172,2052.52,4.42675623800354
1173,2053.06,11.500549604099179
1174,2054.5,4.180253402158465
1175,2055.02,12.3681016299155
1176,2056.53,5.884063173007896
1177,2057.03,12.875634233314466
1178,2058.52,4.002142857142717
1179,2059.04,11.260322858374419
1180,2060.55,2.9582104228121926
1181,2061.05,8.87704918032787
1182,2062.55,3.0033377837116153
1183,2063.05,9.485270180119644
1184,2064.63,2.522803738318194
1185,2065.05,9.010013351134845
1186,2066.55,3.0016677785190127
1187,2067.05,9.430480640852725
1188,2068.62,2.467147564995216
1189,2069.0,11.603596491227833
1190,2070.79,1.2327978018430092
1191,2071.15,5.2162499999998175
1192,2072.71,2.035308732187962
1193,2073.43,3.4866627879915724
1194,2074.7,1.2321925133699132
1195,2075.11,5.0371870337714295
1196,2076.77,1.1582403067742644
1197,2077.14,4.874917127071653
1198,2078.7,1.7993412754041282
1199,2079.28,5.004360641525561
1200,2080.86,0.6368871120749172
1201,2081.07,5.209360627408625
1202,2082.81,1.3265095442158412
1203,2083.26,4.257649463463267
1204,2084.72,1.8964842751217177
1205,2085.37,3.983289986995831
1206,2086.72,1.654435451235566
1207,2087.13,6.107223974762576
1208,2088.6,2.3103646593037968
1209,2089.16,5.820980707396593
1210,2090.61,1.7356680161936713
1211,2091.04,5.9602066590124885
1212,2092.58,2.137094368732587
1213,2093.02,7.309400654747872
1214,2094.55,3.2056415530977764
1215,2095.21,6.7557765876056415
1216,2096.61,2.2267248908297788
1217,2097.09,6.59909979064809
1218,2098.56,2.093720871962174
1219,2099.0,7.354819454680207
1220,2100.57,1.7334818941504837
1221,2101.05,8.218002350176166
1222,2102.57,2.5606941838638804
1223,2103.02,8.810357781753826
1224,2104.63,2.72448603057324
1225,2105.18,6.45063655030986
1226,2106.51,2.4023504474788266
1227,2107.04,5.398846931895514
1228,2108.57,2.355295844276345
1229,2109.28,4.22120061967461
1230,2110.55,1.8257074377600344
1231,2111.1,4.988929917106907
1232,2112.63,1.1860564622846081
1233,2113.0,3.657210377218185
1234,2114.13,2.054981458590282
1235,2114.85,3.673679411294353
1236,2116.52,1.347574406555058
1237,2117.0,4.882715344429647
1238,2118.73,0.7995503699486001
1239,2119.06,3.7569082391841753
1240,2120.64,1.3223922009749827
1241,2121.1,4.331540785498387
1242,2122.64,1.2714872798443049
1243,2123.07,4.298797646114259
1244,2124.5,2.5918032786882472
1245,2125.35,3.6792234169654066
1246,2126.58,1.275568956477004
1247,2127.01,5.237802661045271
1248,2128.77,1.211513832326525
1249,2129.16,4.332836979535248
1250,2130.55,2.36036358431148
1251,2131.3,4.123122893043211
1252,2132.55,1.838734233564872
1253,2133.12,4.5983564848663825
1254,2134.56,1.6121122057105968
1255,2135.02,5.56694501018388
1256,2136.59,2.480201112537327
1257,2137.38,3.905055225148683
1258,2138.63,1.6072089833698286
1259,2139.08,5.735929594905958
1260,2140.65,1.480249074385985
1261,2141.07,6.237556018759836
1262,2142.8,1.1849779735679324
1263,2143.17,4.261237143696505
1264,2144.5,7.680572160545971
1265,2146.95,0.6415222384631447
1266,2147.2,3.938375685660595
1267,2148.67,1.297872340425532
1268,2149.17,3.8401123595501216
1269,2150.6,1.1972280862782578
1270,2151.04,4.550182081273057
1271,2152.66,1.2082476024414976
1272,2153.04,5.63561693732061
1273,2154.76,1.065046728970994
1274,2155.04,4.597648194631532
1275,2156.22,0.9400000000000546
1276,2157.16,4.967940813810111
1277,2158.66,1.2750182295467387
1278,2159.06,4.816226687870406
1279,2160.58,1.84416739319942
1280,2161.16,4.906915968813744
1281,2162.71,1.209332169358706
1282,2163.09,11.344232804232687
1283,2166.63,1.889621280431946
1284,2167.14,5.082555205048053
1285,2168.65,1.2262172169079997
1286,2169.02,5.059140396740628
1287,2170.55,1.7999474893337082
1288,2171.07,5.211278721277957
1289,2172.56,1.4816753461202836
1290,2173.07,4.705748226551064
1291,2174.82,0.70994807324341
1292,2175.12,3.93390300230978
1293,2176.73,1.3890457567455958
1294,2177.2,4.0093439363819705
1295,2178.6,2.013587065388067
1296,2179.24,4.57411405295464
1297,2180.53,1.9284176809733096
1298,2181.19,5.00202518763458
1299,2182.91,0.5327106466370468
1300,2183.09,5.544798890429118
1301,2184.89,0.6259539918816448
1302,2185.11,4.112936517757859
1303,2186.55,1.6068476977567887
1304,2187.05,5.127861980006449
1305,2188.55,2.040612244897013
1306,2189.06,6.444640522876749
1307,2190.57,2.4708510638296737
1308,2191.36,3.905947081057646
1309,2192.62,1.7950796528950772
1310,2193.23,4.873883235136255
1311,2194.85,0.6518806438955327
1312,2195.07,4.324702616970116
1313,2196.52,2.4985234690705624
1314,2197.27,4.9576653351086275
1315,2198.81,0.6234895539251871
1316,2199.01,5.230008378716818
1317,2200.7,1.054712466229628
1318,2201.06,5.541708796764409
1319,2202.81,0.623848544787514
1320,2203.01,5.236491228069768
1321,2204.65,1.4340727640215012
1322,2205.22,2.4476073931152964
1323,2206.19,2.085322766872957
1324,2207.0,4.880538116592367
1325,2208.82,0.5916449086156499
1326,2209.02,5.375595453371007
1327,2210.85,0.605380946404021
1328,2211.06,4.300589777196091
1329,2212.51,1.9369588173167616
1330,2213.16,4.145385225321447
1331,2214.55,1.8347257383956628
1332,2215.14,4.343068995133467
1333,2216.52,1.8375331265863004
1334,2217.11,4.770769230769118
1335,2218.65,2.329474145486474
1336,2219.38,3.7486956521734944
1337,2220.52,1.7240374214294993
1338,2221.06,4.97768880800722
1339,2222.58,1.6852226314028091
1340,2223.06,5.637524396507187
1341,2224.64,1.7200000000009321
1342,2225.11,5.094581280788509
1343,2226.51,2.1845070422531903
1344,2227.11,5.721780821916856
1345,2228.64,1.618361006963243
1346,2229.08,5.533313857951501
1347,2230.56,1.7653348467651795
1348,2231.02,6.241167883211951
1349,2232.69,1.638932536293231
1350,2233.08,6.591196877711095
1351,2234.63,1.1053080836626943
1352,2235.04,4.551786833855589
1353,2236.62,2.075245579568589
1354,2237.32,3.5606074658003193
1355,2238.62,1.8127596439176206
1356,2239.32,3.554446576328046
1357,2240.59,1.853481894150137
1358,2241.19,4.3028248113994385
1359,2242.58,1.7884694313814455
1360,2243.15,4.564482338611032
1361,2244.54,2.585131056393873
1362,2245.06,8.872214941022282
1363,2246.56,3.000833611203735
1364,2247.06,9.017540928833945
1365,2248.56,2.7037562604356964
1366,2249.01,9.517193967028998
1367,2250.53,2.30158539514773
1368,2251.03,8.047042253520937
1369,2252.57,2.301237062591385
1370,2253.06,6.471446540880748
1371,2254.5,2.820535668297354
1372,2255.08,6.643409742121594
1373,2256.53,2.487281399046105
1374,2257.03,9.816134568236704
1375,2258.96,0.8076758882172124
1376,2259.22,9.319351389879843
1377,2262.57,1.881617161716268
1378,2263.28,3.4434565619217197
1379,2264.54,2.4290823149639134
1380,2265.43,3.3895522954346355
1381,2266.6,1.6857450306381117
1382,2267.12,4.739825436409221
1383,2268.54,1.7053090161275253
1384,2269.19,3.2897016660206018
1385,2270.31,2.437788649706819
1386,2271.17,4.103041549012082
1387,2272.53,2.379490150637312
1388,2273.28,4.266665663556849
1389,2274.59,1.8000388433309755
1390,2275.16,4.478802395209934
1391,2276.54,2.439615126426256
1392,2277.1,6.781796407187009
1393,2278.53,2.4154341282702703
1394,2279.07,5.768881680040588
1395,2280.69,1.1284644940946071
1396,2281.05,4.748492491616158
1397,2282.54,1.721546762590578
1398,2283.07,4.778485316847167
1399,2284.51,1.7110215300045208
1400,2285.03,5.166482896047888
1401,2286.51,8.0
1402,2287.01,24.04297679111656
1403,2288.5,8.382903225806158
1404,2289.02,24.0429767911239
1405,2290.51,8.06811301715439
1406,2291.01,24.52706357214905
1407,2292.53,7.906750756807781
1408,2293.02,24.0429767911239
1409,2294.51,8.390837537840273
1410,2295.03,22.256457564575644
1411,2296.53,5.466887417218543
1412,2297.03,16.53999999999961
1413,2298.57,5.066141522029773
1414,2299.03,16.5
1415,2300.53,5.506675567423231
1416,2301.03,16.8299999999972
1417,2302.56,5.0434640522892495
1418,2303.11,11.181016949152408
1419,2304.63,2.956231884058483
1420,2305.05,10.761697506031998
1421,2306.58,3.7599195171030817
1422,2307.02,12.732454728372241
1423,2308.51,4.778985434454582
1424,2309.07,12.294271356784387
1425,2310.51,4.695728643213751
1426,2311.06,12.715514816677056
1427,2312.55,1.6965705480956343
1428,2313.19,5.917969133637716
1429,2314.82,1.2647009569373862
1430,2315.21,4.8589655172412645
1431,2316.75,1.2737734927990947
1432,2317.2,5.112197475872204
1433,2318.99,0.6503728524430878
1434,2319.22,3.869842519685402
1435,2320.58,1.2867433501079377
1436,2321.04,5.036633900743736
1437,2322.84,1.1519103972946731
1438,2323.21,4.54925579386803
1439,2324.65,1.89146656237741
1440,2325.29,3.67970066087858
1441,2326.54,1.8953702687873788
1442,2327.16,4.799671240320388
1443,2328.74,1.2962169680113511
1444,2329.16,4.270427373547055
1445,2330.57,2.458863538526963
1446,2331.35,4.013485193622495
1447,2332.63,1.2295537374483976
1448,2333.06,5.096481481482174
1449,2334.8,0.7135411094306803
1450,2335.06,4.592217831563712
1451,2336.67,1.2419386057768576
1452,2337.05,5.538929690998774
1453,2338.76,1.3189195148837316
1454,2339.19,4.50877008096635
1455,2340.73,1.7673113009387516
1456,2341.3,4.106159159590446
1457,2342.6,1.8169205446653924
1458,2343.16,4.952308380555374
1459,2344.69,1.1466401194626799
1460,2345.09,4.812846814895427
1461,2346.67,2.2683534700759207
1462,2347.4,3.4621283624351107
1463,2348.65,2.1191128010131894
1464,2349.47,3.226118526428805
1465,2350.71,1.7606419718707187
1466,2351.28,4.900782918149408
1467,2352.8,1.2452631578943305
1468,2353.19,4.824310798945689
1469,2354.7,5.9461159929705305
1470,2356.56,1.908445552784369
1471,2357.18,4.23630470016235
1472,2358.58,1.8589991396620587
1473,2359.17,4.475455557100565
1474,2360.62,1.851036889332703
1475,2361.15,4.8517832885801875
1476,2362.59,2.72933873144299
1477,2363.43,3.5317736230426777
1478,2364.65,1.2342776735455634
1479,2365.04,5.566741071429134
1480,2366.84,0.6269247189406565
1481,2367.04,4.861562252181134
1482,2368.67,1.583499071139526
1483,2369.27,3.7493252024392683
1484,2370.77,1.313880070546271
1485,2371.18,4.0975201288248595
1486,2372.54,2.3230072578102186
1487,2373.23,5.544505283381735
1488,2374.86,0.5909589041090515
1489,2375.04,5.2882477903555785
1490,2376.63,1.9247062268193653
1491,2377.12,7.293331871025519
1492,2378.82,1.802166018157316
1493,2379.39,4.289981801637674
1494,2380.7,1.2244444444447962
1495,2381.08,4.938078408079054
1496,2382.61,1.9130475647953276
1497,2383.22,5.031975789620484
1498,2384.85,0.6086080087178012
1499,2385.05,5.01217272104142
1500,2386.69,1.269743728082227
1501,2387.11,4.307383512544966
1502,2388.55,2.9851773425092643
1503,2389.55,2.6301873289833253
1504,2390.57,1.4266839611994047
1505,2391.1,3.842204724409496
1506,2392.58,1.3320770432066165
1507,2393.1,3.762830411872387
1508,2394.54,2.4662830482122966
1509,2395.28,4.211777420767291
1510,2396.6,1.854574898785056
1511,2397.24,3.8056049514188515
1512,2398.51,4.268844221105528
1513,2399.01,13.051084337347227
1514,2400.54,4.83817258883287
1515,2401.0,16.530060120240478
1516,2402.5,5.503335557038025
1517,2403.0,16.750460921843487
1518,2404.52,6.057711171661716
1519,2405.06,16.079492656876234
1520,2406.52,5.566179775283281
1521,2407.03,16.510006671114077
1522,2408.53,4.189043784598033
1523,2409.02,14.785657346819717
1524,2410.51,4.270739064856711
1525,2411.01,12.721155778892609
1526,2412.5,4.266951280763436
1527,2413.0,12.806532663316585
1528,2414.5,4.265060240963855
1529,2415.0,13.312887995981454
1530,2416.56,3.8890646181653863
1531,2417.06,9.375341660544073
1532,2418.5,3.247019822284206
1533,2419.03,9.24777777777652
1534,2420.5,3.964072059823804
1535,2421.15,9.094627424292646
1536,2422.64,2.476532258066384
1537,2423.05,8.871812688820546
1538,2424.52,3.358848460615881
1539,2425.0,11.329902912620366
1540,2426.66,2.349119519738446
1541,2427.29,4.71028331584536
1542,2428.59,1.7124630125396605
1543,2429.14,4.418309114927695
1544,2430.52,2.4294576646374093
1545,2431.31,4.0563312368971065
1546,2432.62,1.8413515204614601
1547,2433.26,4.575080804099221
1548,2434.8,1.2276726935555025
1549,2435.17,4.640487246066422
1550,2436.58,2.3327114057637113
1551,2437.35,3.643495229835501
1552,2438.5,1.6931309436729145
1553,2439.03,5.477714197338724
1554,2440.68,1.214106463879461
1555,2441.05,4.982685421994056
1556,2442.58,1.847482517482286
1557,2443.16,5.066832426070091
1558,2444.74,1.1547850678743816
1559,2445.11,5.004947491247614
1560,2446.68,2.4228334287349167
1561,2447.45,2.517438715131312
1562,2448.56,1.402328277614269
1563,2449.2,8.120377113134401
1564,2452.73,1.1087195527748626
1565,2453.1,5.000406985134711
1566,2454.68,1.8618812423043976
1567,2455.29,3.86044028618669
1568,2456.55,1.8950602409628161
1569,2457.18,3.0048115477145148
1570,2458.18,1.90806329456349
1571,2458.81,5.114750067549476
1572,2460.5,2.4367192429026945
1573,2461.32,4.746997084547994
1574,2462.86,0.5501997912630952
1575,2463.03,4.2003245587783
1576,2464.325,2.8734661473943577
1577,2465.21,5.358096604495211
1578,2466.79,1.1639361848442347
1579,2467.17,4.172690225135138
1580,2468.5,6.416037200057364
1581,2470.55,1.6911425893132401
1582,2471.21,4.750614895309208
1583,2472.8,1.1873654390924044
1584,2473.18,4.23816326530734
1585,2474.51,2.4405166051652545
1586,2475.29,4.6929234737754655
1587,2476.78,1.1392477668066743
1588,2477.12,5.339113428944564
1589,2478.67,1.4501629327899042
1590,2479.0,7.265925384052416
1591,2480.56,2.0667535853973398
1592,2481.16,5.427996768983169
1593,2482.63,1.2871313053524893
1594,2483.07,4.150700152206526
1595,2484.5,1.875035255081271
1596,2485.11,4.977856173676683
1597,2486.75,1.191156965988673
1598,2487.13,5.013945172823908
1599,2488.68,1.1585763000863336
1600,2489.05,5.780539677933213
1601,2490.87,0.6848450889914846
1602,2491.1,4.322340641237538
1603,2492.59,1.2843046357611003
1604,2493.02,4.567720892928698
1605,2494.54,1.7884586929715196
1606,2495.08,4.906185133240681
1607,2496.55,2.198863030733367
1608,2497.15,5.584270660011161
1609,2498.63,1.7175769534325105
1610,2499.14,6.022198523380638
1611,2500.88,0.6653533775868353
1612,2501.15,4.379245516387863
1613,2502.87,0.5811996229084202
1614,2503.08,4.890075713454248
1615,2504.86,0.632097902097952
1616,2505.09,4.752083676107098
1617,2506.81,0.6224656278644525
1618,2507.02,4.961182665046192
1619,2508.66,1.7444505494510505
1620,2509.23,4.640381020847679
1621,2510.7,1.2846947803010882
1622,2511.1,4.811853281853912
1623,2512.63,1.8129832935559094
1624,2513.19,4.750956139018982
1625,2514.64,1.189111008752148
1626,2515.0,5.3225288239819735
1627,2516.61,1.698285385499819
1628,2517.1,6.054018787013417
1629,2518.59,2.8037218413316025
1630,2519.19,6.759682371625831
1631,2520.55,2.5669565217392276
1632,2521.03,9.057504456327191
1633,2522.69,2.1242474389274815
1634,2523.12,6.68860228716803
1635,2524.51,2.737799260733484
1636,2525.03,8.304856674854914
1637,2526.66,2.1354468535181033
1638,2527.09,7.399571655207801
1639,2528.58,2.6944660194186287
1640,2529.09,7.483648573027704
1641,2530.53,2.5723956894169664
1642,2531.03,7.992227763922118
1643,2532.58,2.5967291025999444
1644,2533.08,8.080024592683984
1645,2534.52,1.679208869422948
1646,2535.07,5.288150954392659
1647,2536.73,1.3439899307743772
1648,2537.13,5.23229771637953
1649,2538.81,0.795212941565355
1650,2539.11,3.9434755097253515
1651,2540.54,2.3546055188501276
1652,2541.34,4.050585774058408
1653,2542.65,1.5388235294118229
1654,2543.13,5.2624850894623965
1655,2544.64,1.7806085918860306
1656,2545.19,5.13595759971207
1657,2546.58,1.5947236414306225
1658,2547.06,5.345575483197001
1659,2548.54,2.205258258806895
1660,2549.13,5.6582208131286
1661,2550.62,1.8611507097558955
1662,2551.19,5.354362017803685
1663,2552.85,0.6453020632337734
1664,2553.05,4.959182948490113
1665,2554.59,2.5543859649114093
1666,2555.39,3.8561538461545144
1667,2556.65,1.4052035861032217
1668,2557.14,3.913551136364495
1669,2558.55,1.7500388407527954
1670,2559.09,4.783333333332733
1671,2560.54,1.8748355410028903
1672,2561.12,5.053545361277798
1673,2562.7,1.2009904999225554
1674,2563.06,5.785954985933166
1675,2564.79,0.6879969650987534
1676,2565.0,5.031483925312029
1677,2566.62,1.8809564474805005
1678,2567.22,4.574102269463658
1679,2568.67,1.1593613995160852
1680,2569.04,4.689713672155362
1681,2570.53,1.9438801711835942
1682,2571.19,4.353881278538813
1683,2572.69,1.3347817538335147
1684,2573.14,3.8075104979007763
1685,2574.5,2.192309302629211
1686,2575.24,4.269214780601846
1687,2576.53,1.950580204777769
1688,2577.17,4.290356294536981
1689,2578.61,1.194807259239906
1690,2579.01,4.729911305082303
1691,2580.53,1.8423214285704879
1692,2581.1,5.030690668626535
1693,2582.67,1.255675984027667
1694,2583.07,4.659313669880202
1695,2584.56,1.7984866828093116
1696,2585.11,5.554150691038142
1697,2586.83,0.6121596800475761
1698,2587.02,4.835307588685096
1699,2588.51,1.8293901900123226
1700,2589.08,5.319475524475756
1701,2590.75,1.146057619408345
1702,2591.1,4.808036127837866
1703,2592.55,2.390503597122218
1704,2593.07,6.3652542372873375
1705,2594.52,2.684029850747564
1706,2595.01,8.933210791579501
1707,2596.65,2.2640850165804443
1708,2597.06,8.110824372759955
1709,2598.54,3.234023146872977
1710,2599.17,8.108844431173585
1711,2600.65,2.422795466810669
1712,2601.13,6.474579971523825
1713,2602.55,5.072299465241043
1714,2603.01,16.970861723446497
1715,2604.55,5.169999999997799
1716,2605.02,19.00567398119424
1717,2606.51,8.037688442211056
1718,2607.01,24.434572864321314
1719,2608.53,8.037688442211056
1720,2609.03,23.653098591546073
1721,2610.5,8.037688442211056
1722,2611.0,24.090361445783135
1723,2612.5,8.359195979899205
1724,2613.02,24.090361445783135
1725,2614.52,8.037688442211056
1726,2615.02,24.41156626505995
1727,2616.54,8.03012048192771
1728,2617.04,23.929759036148376
1729,2618.53,8.03012048192771
1730,2619.03,24.11306532663317
1731,2620.53,8.176560900716478
1732,2621.03,23.99755287008712
1733,2622.52,8.03012048192771
1734,2623.02,24.067703109327983
1735,2624.52,8.03012048192771
1736,2625.02,23.90725175526959
1737,2626.51,8.03012048192771
1738,2627.01,23.95508982035928
1739,2628.51,8.03012048192771
1740,2629.01,25.696385542167214
1741,2630.61,2.3109029153686924
1742,2631.35,3.3003500583438075
1743,2632.55,1.865288907633627
1744,2633.15,4.344475602916715
1745,2634.55,1.8407868957763331
1746,2635.09,5.244459140292684
1747,2636.65,1.7297097884899164
1748,2637.15,5.403165396087879
1749,2638.7,1.0953190114688207
1750,2639.02,13.253958714832567
1751,2642.81,1.1665720687084038
1752,2643.17,4.764538250532776
1753,2644.62,1.804371293903592
1754,2645.17,5.42694581280746
1755,2646.81,0.8959339740909867
1756,2647.1,6.393630423857168
1757,2648.92,0.679162376512531
1758,2649.14,4.126909042126075
1759,2650.51,2.1449773527920044
1760,2651.12,5.321071932299144
1761,2652.58,2.381486414491542
1762,2653.23,4.6581462140990855
1763,2654.52,1.8487904599658638
1764,2655.04,5.103217993080468
1765,2656.51,2.2539878950903383
1766,2657.15,5.128275862068378
1767,2658.58,2.173699205978415
1768,2659.37,3.614637805401057
1769,2660.52,1.7529746281720584
1770,2661.07,4.818345864661714
1771,2662.55,2.467557251908397
1772,2663.3,4.4093273542590286
1773,2664.66,1.1407981492196053
1774,2665.02,5.3193299431644085
1775,2666.66,1.1940534521169281
1776,2667.03,5.70795872588528
1777,2668.79,1.1355329536205796
1778,2669.12,5.011486818406052
1779,2670.57,1.7823312883434381
1780,2671.11,6.750930232557292
1781,2673.14,4.4534734058194445
1782,2674.53,1.7224938875305622
1783,2675.03,5.702285143236632
1784,2676.66,1.5812761542453975
1785,2677.1,5.438682505400511
1786,2678.57,2.2475313190856356
1787,2679.27,4.602212333121855
1788,2680.63,2.2991880920165597
1789,2681.28,4.80092024539845
1790,2682.63,2.5303946070372216
1791,2683.36,4.308720748829831
1792,2684.65,1.767173207434945
1793,2685.2,4.393282236250057
1794,2686.55,2.4078423236500557
1795,2687.24,4.63680409024634
1796,2688.59,1.872675222112411
1797,2689.13,4.81683629675058
1798,2690.59,1.7220342117428895
1799,2691.11,4.834625176803578
1800,2692.55,2.499041916167606
1801,2693.32,4.490507726268149
1802,2694.72,8.917636424507663
1803,2697.26,4.865486897442883
1804,2698.68,1.7462490948597442
1805,2699.15,5.16749192680335
1806,2700.55,2.185684518683173
1807,2701.16,5.289310344828746
1808,2702.57,2.2392735042723024
1809,2703.18,5.154022166607414
1810,2704.58,2.2267726330334714
1811,2705.2,5.170874483749663
1812,2706.6,1.713633720930368
1813,2707.06,5.891893925491531
1814,2708.63,1.813370543751443
1815,2709.12,5.07087771942968
1816,2710.68,1.1623791919735136
1817,2711.07,4.723677639045798
1818,2712.58,1.8926199587876322
1819,2713.17,5.090437017994516
1820,2714.79,1.8459472196047577
1821,2715.34,4.134661654135279
1822,2716.61,1.7693993272464543
1823,2717.13,4.852144224632502
1824,2718.56,2.351745028518696
1825,2719.27,4.631649387370771
1826,2720.65,2.3442192853640957
1827,2721.33,4.183562753037311
1828,2722.55,1.7545679012345063
1829,2723.07,5.339809508563121
1830,2724.64,1.7632260121134224
1831,2725.16,4.6616146241969245
1832,2726.55,2.308676014999499
1833,2727.22,5.488955962396181
1834,2728.8,1.2246350477360108
1835,2729.17,4.404902293967259
1836,2730.58,1.8212401138878873
1837,2731.12,5.294733542319505
1838,2732.7,1.8204299715458778
1839,2733.24,5.194771907823153
1840,2734.79,5.9564781906308575
1841,2736.53,8.987109826585591
1842,2737.02,24.411921132460556
1843,2738.53,8.892939068096572
1844,2739.0,32.330810810810426
1845,2740.52,10.44934959350098
1846,2741.01,31.905405405405403
1847,2742.51,14.62461538460887
1848,2743.0,52.40497737556561
1849,2744.5,16.21841889117737
1850,2745.01,44.53886792452777
1851,2746.53,12.273940345368915
1852,2747.03,36.27623824451455
1853,2748.51,12.273940345368915
1854,2749.01,36.57634222919401
1855,2750.5,12.745705329153157
1856,2751.02,36.576342229205174
1857,2752.51,12.25548589341693
1858,2753.01,36.76645768025079
1859,2754.51,12.237089201877934
1860,2755.01,36.5213479623771
1861,2756.5,12.971314553995509
1862,2757.03,38.48222570532202
1863,2758.6,0.9960235888796517
1864,2759.04,4.505203653418701
1865,2760.62,1.9811864406780677
1866,2761.33,4.301739130435346
1867,2762.86,0.7175874547641241
1868,2763.08,5.254203748748262
1869,2764.75,1.1804493750881075
1870,2765.13,4.768788828726075
1871,2766.65,1.6727012478581889
1872,2767.24,4.676029935852489
1873,2768.73,0.8907457533488732
1874,2769.02,5.550395268752926
1875,2770.73,1.5040160642570282
1876,2771.23,3.4742857142862573
1877,2772.51,2.478515246508863
1878,2773.3,3.966009057458194
1879,2774.57,1.8345501038835266
1880,2775.11,5.754766958928674
1881,2776.85,0.5936255487892939
1882,2777.04,5.1068704261727085
1883,2778.66,1.8218300298680608
1884,2779.26,4.140222903314731
1885,2780.6,1.2663008951778796
1886,2781.0,4.9817105819357455
1887,2782.6,1.806907347341474
1888,2783.18,4.177142857143375
1889,2784.5,1.8612960235638314
1890,2785.08,4.8838112991115565
1891,2786.63,1.2296727429305587
1892,2787.02,4.846613226452791
1893,2788.56,1.9510433662512665
1894,2789.18,4.291280209014524
1895,2790.63,1.0570512503091707
1896,2791.0,4.769695087521798
1897,2792.53,1.8332411408813603
1898,2793.11,4.496700852231922
1899,2794.53,2.297237709071193
1900,2795.18,4.831927223720895
1901,2796.55,1.7916217121787639
1902,2797.06,6.077187630590272
1903,2798.53,2.4978466741813627
1904,2799.1,6.587478580172804
1905,2800.51,1.964463311097337
1906,2801.11,5.087465753424315
1907,2802.73,1.2065276689140496
1908,2803.09,5.120285182888906
1909,2804.63,1.7353264276943572
1910,2805.2,5.57207338380897
1911,2806.95,0.5895824431934339
1912,2807.19,3.6250329877472574
1913,2808.5,1.9505701509226407
1914,2809.13,4.162724697399132
1915,2810.55,2.4683442798228192
1916,2811.3,3.9238239159001895
1917,2812.53,1.906509523165238
1918,2813.16,4.5425963488843815
1919,2814.66,1.3550283695535335
1920,2815.18,3.015411274403147
1921,2816.32,2.1198802796664324
1922,2817.19,4.169113778571863
1923,2818.62,1.3393936500358588
1924,2819.1,4.315457063711713
1925,2820.68,1.094042799306206
1926,2821.08,3.059790285483005
1927,2822.09,2.036309896998919
1928,2822.85,3.686583480921107
1929,2824.52,2.223744493392018
1930,2825.29,4.230052910053435
1931,2826.61,1.776333622936404
1932,2827.17,4.589171254277873
1933,2828.59,1.6910433539780847
1934,2829.09,5.116200378071248
1935,2830.52,9.323387132433597
1936,2832.68,1.9369585253457213
1937,2833.39,3.516462264150893
1938,2834.66,1.2453085376165132
1939,2835.06,4.875386795125928
1940,2836.62,1.776534176866783
1941,2837.2,4.489947575361404
1942,2838.61,2.217583385776729
1943,2839.27,5.148731682668142
1944,2840.73,2.0176532473000437
1945,2841.38,3.738895800933072
1946,2842.65,1.1646292372877554
1947,2843.04,5.773043478261265
1948,2844.9,0.6561890055590389
1949,2845.13,4.387676503548018
1950,2846.66,1.2211316275398287
1951,2847.07,4.546280860100822
1952,2848.59,1.781412444210809
1953,2849.19,5.079402798947211
1954,2850.84,1.199421731694852
1955,2851.2,4.836503237742951
1956,2852.66,2.1132544378696165
1957,2853.22,4.607762322347549
1958,2854.63,2.458928388309885
1959,2855.32,5.258010622887371
1960,2856.86,0.6950625711028946
1961,2857.1,5.066787893580566
1962,2858.89,0.6275503711559942
1963,2859.1,4.854678600487926
1964,2860.7,1.8706778726925921
1965,2861.31,3.7457254479328173
1966,2862.55,1.8543900448786457
1967,2863.16,4.734137168141481
1968,2864.7,1.2473379466179928
1969,2865.1,4.557349598003937
1970,2866.58,1.711631663974152
1971,2867.08,5.371647137596953
1972,2868.61,2.1826218851564896
1973,2869.33,4.398758652514758
1974,2870.66,1.8242437119560957
1975,2871.33,3.6084095427441643
1976,2872.59,1.5911343037626469
1977,2873.11,4.905994550408719
1978,2874.61,2.394977335867817
1979,2875.36,3.794495289367665
1980,2876.53,2.264365482233052
1981,2877.17,4.772377049180847
1982,2878.51,2.095648994515335
1983,2879.07,5.889606299211736
1984,2880.56,2.3719141259241177
1985,2881.2,4.21264401772531
1986,2882.68,1.8707525325619665
1987,2883.27,4.7118659881262115
1988,2884.78,1.2061265618691168
1989,2885.18,4.304564315352977
1990,2886.58,2.426062405080656
1991,2887.37,3.6125887265137946
1992,2888.54,1.7789587367799717
1993,2889.09,5.6560907127428655
1994,2890.88,0.6414559386967347
1995,2891.1,4.408479834539814
1996,2892.6,1.235322893749405
1997,2893.02,4.617128013853627
1998,2894.56,1.8464431197225053
1999,2895.09,5.280744544286618
2000,2896.64,1.7149141597109245
2001,2897.15,5.3589777195272355
2002,2898.7,1.2111979823459516
2003,2899.06,5.092558211736152
2004,2900.59,1.5740227030856018
2005,2901.02,6.1105590756620565
2006,2902.63,1.7072762372755104
2007,2903.1,5.594683195593174
2008,2904.59,3.154526928674641
2009,2905.27,4.531481795089616
2010,2906.55,1.770965092402242
2011,2907.13,4.817535046728217
2012,2908.64,2.597326057298837
2013,2909.37,3.4751898734183233
2014,2910.63,1.8599999999990016
2015,2911.24,4.6046850662665495
2016,2912.75,1.2005977584064023
2017,2913.11,4.911552555448595
2018,2914.55,1.7103237156924458
2019,2915.02,5.626595218466233
2020,2916.64,1.392518400923827
2021,2917.08,4.3620123361610625
2022,2918.57,1.9665857199414958
2023,2919.23,4.96964995512192
2024,2920.93,0.5856536829934715
2025,2921.13,4.807516116798972
2026,2922.79,1.2236896109444486
2027,2923.18,4.550498930863293
2028,2924.63,5.87947740301304
2029,2926.59,1.8825883418906675
2030,2927.34,3.235376418013211
2031,2928.53,1.7081757081123812
2032,2929.14,5.371083204714521
2033,2930.87,0.6270462633460512
2034,2931.07,4.969839932602918
2035,2932.67,1.7891483757680435
2036,2933.23,4.968202247191661
2037,2934.76,1.2909626128057299
2038,2935.17,4.474867841409804
2039,2936.63,1.2564992311630276
2040,2937.06,4.373870967742629
2041,2938.55,1.9351215121506775
2042,2939.27,4.949564462678827
2043,2940.74,1.1732708688258895
2044,2941.07,5.832475077344931
2045,2942.7,1.2064627930688139
2046,2943.04,5.314572538860727
2047,2944.59,1.6583501374876526
2048,2945.2,4.021944406963778
2049,2946.53,1.939881422924434
2050,2947.21,3.7226612001496076
2051,2948.51,1.4867453213988495
2052,2949.0,5.086958698372905
2053,2950.52,1.8299469496026477
2054,2951.09,5.435561333740007
2055,2952.74,1.2434462664327037
2056,2953.15,4.414668105774529
2057,2954.61,1.907828843105801
2058,2955.25,4.088006279435175
2059,2956.63,1.2136490446607997
2060,2957.07,4.6306378986857375
2061,2958.68,1.07818621523704
2062,2959.01,11.621607142855321
2063,2960.52,7.7380645161293256
2064,2961.0,24.11479041916516
2065,2962.51,8.05287009063444
2066,2963.01,23.929759036141075
2067,2964.5,8.037688442211056
2068,2965.0,24.940342052316808
2069,2966.55,7.361495601169887
2070,2967.02,22.966144578310622
2071,2968.45,9.02893114080463
2072,2969.0,82.20852459016352
2073,2972.52,7.869518072292955
2074,2973.01,23.442655367227513
2075,2974.56,5.066141522029773
2076,2975.02,15.886229720960612
2077,2976.5,4.6998993963798235
2078,2977.05,12.806455696200656
2079,2978.54,4.215291434365946
2080,2979.03,13.259352290677363
2081,2980.52,4.272635814889336
2082,2981.02,12.72680241327502
2083,2982.51,4.278337531486146
2084,2983.01,13.218463094034066
2085,2984.55,4.105377643504687
2086,2985.03,13.016560082514854
2087,2986.52,4.1760985626284945
2088,2987.0,14.047122567069318
2089,2988.58,2.5837328855602624
2090,2989.11,6.869632063074272
2091,2990.5,2.617902097902006
2092,2991.02,8.546202996026796
2093,2992.55,1.7975664034448826
2094,2993.12,4.7996317606443615
2095,2994.64,1.246845965770326
2096,2995.08,4.318779761905386
2097,2996.59,1.7813195342819557
2098,2997.11,4.865297885969975
2099,2998.54,1.7995241797541939
2100,2999.08,4.783653250774175
2101,3000.52,2.4629502822795515
2102,3001.18,6.120247592847448
2103,3002.89,0.5922015241322616
2104,3003.08,4.849744535907467
2105,3004.63,1.212206605762078
2106,3005.02,4.431679261124598
2107,3006.45,2.173445606994582
2108,3007.14,4.517700987306915
2109,3008.59,1.947507111842795
2110,3009.19,4.4630930720785456
2111,3010.63,1.2362797259165301
2112,3011.04,4.402206134000317
2113,3012.52,1.7991815821838022
2114,3013.11,5.028134642355902
2115,3014.73,1.1564609726198665
2116,3015.11,4.746087443945399
2117,3016.64,1.719763543849796
2118,3017.17,5.385690376568675
2119,3018.79,1.1102648171498184
2120,3019.12,5.122464844367137
2121,3020.64,2.2684508370667293
2122,3021.14,7.61869013271938
2123,3022.57,2.6944660194162267
2124,3023.08,7.603057503506501
2125,3024.54,2.528671896131999
2126,3025.04,8.10668358714139
2127,3026.59,2.009720793533401
2128,3027.02,7.207574827322709
2129,3028.51,3.120866955651775
2130,3029.03,9.645206638463293
2131,3030.67,1.3831581100435455
2132,3031.01,8.57602272727091
2133,3032.64,2.331274601688731
2134,3033.05,9.53836131631924
2135,3034.63,2.497970503365513
2136,3035.06,9.217118644068641
2137,3036.65,1.9202427044213668
2138,3037.01,8.853042836039482
2139,3038.64,2.576993424986453
2140,3039.11,8.260205278590998
2141,3040.64,1.9937565827988195
2142,3041.01,8.4149999999998
2143,3042.55,3.1280698151936215
2144,3043.06,7.14107458912882
2145,3044.55,2.493375174337517
2146,3045.3,4.584912657063631
2147,3046.69,1.2371240283876475
2148,3047.04,5.381314006616994
2149,3048.64,1.752616940581481
2150,3049.16,4.765544978582673
2151,3050.57,2.2888328075704267
2152,3051.25,4.761800359418772
2153,3052.63,1.7874683132921054
2154,3053.15,4.893587921846687
2155,3054.58,1.7612219296893747
2156,3055.11,4.991488328371508
2157,3056.6,1.721155778895303
2158,3057.09,5.424964682139125
2159,3058.63,2.319080829181508
2160,3059.31,4.79741951299188
2161,3060.7,1.2404237288140902
2162,3061.04,5.790497722287385
2163,3062.68,1.226073920142849
2164,3063.06,4.934034411154605
2165,3064.59,2.258887015176616
2166,3065.23,5.243100616015713
2167,3066.7,1.227192982457416
2168,3067.05,5.070882110470036
2169,3068.51,2.486228813559322
2170,3069.01,7.921232876712328
2171,3070.51,3.2999343544842468
2172,3071.02,10.644669703873413
2173,3072.61,2.8107692307688783
2174,3073.19,4.599280386134444
2175,3074.63,1.237332641411735
2176,3075.05,4.355293495505133
2177,3076.51,2.4066439290585526
2178,3077.3,4.279528528953362
2179,3078.67,1.2683391486387683
2180,3079.08,4.98148329258315
2181,3080.72,1.2390644378548035
2182,3081.13,4.206806268575675
2183,3082.52,2.3951118760764194
2184,3083.28,4.255578764141751
2185,3084.62,1.2330609597935127
2186,3085.01,4.848981521271909
2187,3086.55,1.8927319735705261
2188,3087.15,4.242920452956463
2189,3088.52,2.405141974400471
2190,3089.27,4.968112319906492
2191,3090.82,0.6194755877036138
2192,3091.01,5.052099447512971
2193,3092.54,2.6652057094882196
2194,3093.4,3.618658726048733
2195,3094.63,1.1727677329627846
2196,3095.01,5.117376979031864
2197,3096.64,2.261196960101575
2198,3097.31,4.7885295570562
2199,3098.69,1.375633187773321
2200,3099.07,4.70108332100056
2201,3100.53,1.9353784733302157
2202,3101.1,4.935639028859368
2203,3102.6,1.2663008951778796
2204,3103.0,5.1681147884375935
2205,3104.67,1.1836729713243965
2206,3105.03,5.476091954022508
2207,3106.69,1.1545977011491253
2208,3107.04,5.389342723005121
2209,3108.65,1.1564516129029252
2210,3109.0,5.534979348324381
2211,3110.68,1.1218488425575859
2212,3111.02,5.3441319061865435
2213,3112.61,1.8655796523671178
2214,3113.16,4.769530447542943
2215,3114.65,1.285178640030893
2216,3115.09,10.31618333550594
2217,3118.58,1.8485411872984852
2218,3119.14,4.899549258552982
2219,3120.67,1.2150424846179875
2220,3121.05,4.809310192675394
2221,3122.55,1.8229679747404626
2222,3123.11,4.657018578589802
2223,3124.56,2.4242596317500222
2224,3125.29,4.070209359605971
2225,3126.52,1.830014333492471
2226,3127.06,5.254931312174142
2227,3128.62,1.704432310904127
2228,3129.12,5.732348993288975
2229,3130.75,1.4162063363115736
2230,3131.1,5.323803803803741
2231,3132.62,1.8893686683311075
2232,3133.21,4.965122235156986
2233,3134.77,1.2103618005885823
2234,3135.16,4.190659480925147
2235,3136.5,2.4630518909410144
2236,3137.27,4.11385281385339
2237,3138.57,1.8408085612356833
2238,3139.14,4.618807947020042
2239,3140.58,1.8351710905019551
2240,3141.12,5.551313913852117
2241,3142.79,1.1854356465916758
2242,3143.15,4.608924988055854
2243,3144.51,2.3409191639375115
2244,3145.0,7.822709030101465
2245,3146.51,3.3221774193531903
2246,3147.06,8.428356807511841
2247,3148.54,2.739911894273196
2248,3149.27,5.018372093023912
2249,3150.8,1.1418746924714556
2250,3151.13,4.928613603000578
2251,3152.56,2.5416396761143196
2252,3153.09,7.332888173773312
2253,3154.55,2.5202380277700023
2254,3155.03,8.342120141342559
2255,3156.57,2.5567233919816372
2256,3157.05,7.985095488512295
2257,3158.6,2.1605422314914042
2258,3159.04,7.360794701986846
2259,3160.52,3.8413370280561305
2260,3161.14,8.25244581041915
2261,3162.55,2.9082424984689736
2262,3163.07,8.76961538461401
2263,3164.58,2.9499828473414498
2264,3165.06,9.988675288360145
2265,3166.66,2.48543739279723
2266,3167.13,7.4575102759841485
2267,3168.51,3.043951639614355
2268,3169.02,8.977853610288143
2269,3170.53,1.7429363269602485
2270,3171.01,4.580479704796117
2271,3172.62,1.4498518737973536
2272,3173.07,4.756648691305793
2273,3174.67,1.6549347258486269
2274,3175.15,5.271086110640406
2275,3176.64,1.696627238932136
2276,3177.12,5.228309186978917
2277,3178.59,2.048790904900546
2278,3179.21,5.164982864976178
2279,3180.9,0.6129741763136223
2280,3181.09,5.781798561150252
2281,3182.87,0.6177341207672572
2282,3183.09,4.250947548600074
2283,3184.59,1.731180124223542
2284,3185.11,5.270595295246312
2285,3186.66,2.394826223027697
2286,3187.35,4.473232453315976
2287,3188.66,1.1756948933422195
2288,3189.06,5.274844894155893
2289,3190.82,1.1427221336415176
2290,3191.18,5.498181818182771
2291,3192.86,0.6677870913664953
2292,3193.05,5.5388729016774825
2293,3194.68,1.6662260923651064
2294,3195.18,5.811707317073242
2295,3196.66,1.1709371245504423
2296,3197.05,5.0205352351352595
2297,3198.66,1.2320621273057855
2298,3199.06,6.459341421143771
2299,3200.58,3.4441800643103435
2300,3201.07,10.754276527329399
2301,3202.6,1.7082747603836825
2302,3203.23,4.173622108976441
2303,3204.64,1.8207050479770865
2304,3205.23,4.745350120243259
2305,3206.75,1.2487786259537907
2306,3207.14,4.475954088952884
2307,3208.56,1.7907722385141114
2308,3209.08,5.299213806327716
2309,3210.64,7.762904279647174
2310,3212.89,0.4997982410762615
2311,3213.06,4.560810882902054
2312,3214.58,2.3495147796995033
2313,3215.34,3.959298245613338
2314,3216.58,1.884085750315075
2315,3217.14,4.802994715208456
2316,3218.64,2.3489658356418563
2317,3219.35,5.134643848289224
2318,3220.9,0.6243881737156579
2319,3221.1,4.718215297451106
2320,3222.61,1.834605827539368
2321,3223.18,4.449395017793947
2322,3224.56,1.6516842961758151
2323,3225.04,5.926461055932629
2324,3226.68,1.8659701492535494
2325,3227.24,5.344819277109501
2326,3228.88,0.6224078288577117
2327,3229.07,4.812725045927861
2328,3230.53,1.877152229014227
2329,3231.11,5.332816201199238
2330,3232.78,1.2445533141199059
2331,3233.16,4.371329479769132
2332,3234.54,1.8644815668207364
2333,3235.13,4.915170454544544
2334,3236.7,1.1600355871896957
2335,3237.07,4.790706836615704
2336,3238.58,1.819817278176228
2337,3239.15,4.866725792380697
2338,3240.68,1.1840217072466326
2339,3241.05,5.2597763390225465
2340,3242.69,1.1910249307483438
2341,3243.05,5.14291226458411
2342,3244.61,1.8748913776814942
2343,3245.23,3.9929601310757485
2344,3246.54,1.7489512419509823
2345,3247.07,5.06126999059187
2346,3248.58,2.4152875479248452
2347,3249.27,4.92050273928475
2348,3250.71,1.2926424870470894
2349,3251.07,5.419922229422951
2350,3252.65,1.7476443559495356
2351,3253.18,4.8181670315923
2352,3254.62,2.3527624744224505
2353,3255.32,4.140057443752313
2354,3256.54,1.7532015810276067
2355,3257.06,5.402883853588664
2356,3258.66,1.7782674624938886
2357,3259.18,4.84065693430763
2358,3260.59,1.7423335138054306
2359,3261.06,5.575478582761174
2360,3262.59,2.4557662476587083
2361,3263.08,7.661007667031764
2362,3264.58,2.489389920424403
2363,3265.08,7.157310746426951
2364,3266.52,2.9455300859611455
2365,3267.03,8.779197670656744
2366,3268.53,2.7459852670337677
2367,3269.02,8.436848341233217
2368,3270.57,2.5471143375682592
2369,3271.03,8.443777710294462
2370,3272.55,3.527884084634679
2371,3273.18,8.49212083847225
2372,3274.69,2.6211161145052126
2373,3275.14,7.91769087523329
2374,3276.54,2.768635961028643
2375,3277.05,8.162708803611453
2376,3278.61,2.878337182447843
2377,3279.15,6.109732937685315
2378,3280.69,2.3110842586547253
2379,3281.36,5.239622921125476
2380,3282.87,0.5808264862254782
2381,3283.04,5.59915584415622
2382,3284.67,1.944660952089872
2383,3285.26,4.409458297505303
2384,3286.66,1.7049647634113623
2385,3287.2,4.33723545372449
2386,3288.53,3.4335322386848945
2387,3289.02,10.676626506023968
2388,3290.54,3.382055622732897
2389,3291.02,10.687671893847883
2390,3292.54,4.012028985508399
2391,3293.11,11.193333333331058
2392,3294.72,2.86274647887432
2393,3295.25,4.646612903226383
2394,3296.57,2.154397469525102
2395,3297.22,5.4913459908465505
2396,3298.77,1.264269314303807
2397,3299.15,4.540022662033124
2398,3300.54,1.7979593104518123
2399,3301.08,4.895508777381615
2400,3302.55,2.4172438803256697
2401,3303.29,4.970263828512118
2402,3304.82,1.2197171479069637
2403,3305.2,4.292842661966089
2404,3306.54,3.3622157092630527
2405,3307.03,15.476232790986469
2406,3308.52,5.87633490249045
2407,3309.05,16.42949494949515
2408,3310.53,7.250088105723511
2409,3311.04,18.48954898911399
2410,3312.5,18.572289156626507
2411,3313.0,66.03991452992408
2412,3314.51,14.343634719704019
2413,3315.02,20.583693322340817
2414,3316.56,7.133711967546524
2415,3317.0,26.213075060532685
2416,3319.0,19.847974276527093
2417,3320.52,6.708609271523179
2418,3321.02,19.837408312958438
2419,3322.52,5.095263157897196
2420,3323.01,15.329402074433231
2421,3324.52,6.520268456376085
2422,3325.0,28.03162790697641
2423,3326.52,7.925708376422223
2424,3327.0,26.713370165745538
2425,3328.52,2.180434782609417
2426,3329.07,5.183937696884251
2427,3330.5,3.4429197080285117
2428,3331.14,8.406077348066297
2429,3332.64,2.744093959732019
2430,3333.27,4.318370786516459
2431,3334.66,1.2452554362066606
2432,3335.08,4.6657866523725655
2433,3336.63,1.2020363426597047
2434,3337.01,5.173523683044543
2435,3338.62,1.7359615384622815
2436,3339.13,5.149635036496351
2437,3340.63,1.6902874432678403
2438,3341.11,5.259673272629285
2439,3342.54,2.8191812865498145
2440,3343.02,9.333570938999202
2441,3344.54,1.8567830936305274
2442,3345.12,4.670290275762783
2443,3346.59,2.4885822592865647
2444,3347.35,3.7609273840779185
2445,3348.53,1.7623023288235318
2446,3349.1,5.560422412541733
2447,3350.85,0.620462508760482
2448,3351.05,4.784139484099018
2449,3352.62,1.825322272794534
2450,3353.19,5.145456171735713
2451,3354.78,1.2262172169079997
2452,3355.15,4.426105119246246
2453,3356.5,1.8806625891954094
2454,3357.03,5.8839767591987995
2455,3358.75,1.2112673180694742
2456,3359.13,4.795724005323954
2457,3360.62,1.2176193975021867
2458,3361.0,5.338534495493697
2459,3362.66,1.237916917519922
2460,3363.04,5.116785554394631
2461,3364.62,1.8001736633397027
2462,3365.21,4.787574862926922
2463,3366.75,1.1650089445442404
2464,3367.11,4.8163519579006495
2465,3368.56,1.8068555758689704
2466,3369.11,5.408959705836871
2467,3370.75,1.2588548938062132
2468,3371.14,4.771886792453657
2469,3372.61,1.7428146453080873
2470,3373.14,4.746565672341333
2471,3374.56,2.4019809998451107
2472,3375.28,4.349443155452255
2473,3376.59,1.7835979606698915
2474,3377.15,4.8760276415507295
2475,3378.66,1.831434051343105
2476,3379.23,5.251685676196471
2477,3380.86,0.561945896096152
2478,3381.03,5.375404411763567
2479,3382.66,1.183547353973272
2480,3383.02,5.546686444546049
2481,3384.71,1.264055299539458
2482,3385.11,4.565501985252524
2483,3386.57,1.7775859434681769
2484,3387.11,4.90170160295937
2485,3388.59,2.355015277170846
2486,3389.33,3.813868635131301
2487,3390.5,1.8462100780700084
2488,3391.09,4.840527127435692
2489,3392.65,1.2027482678987287
2490,3393.03,4.9756399132311815
2491,3394.6,1.8329133374319657
2492,3395.05,5.711117349803481
2493,3396.55,2.3133066132259428
2494,3397.21,5.184214876032298
2495,3398.7,1.2829791084071864
2496,3399.07,4.891581975072094
2497,3400.51,2.196027664479185
2498,3401.11,5.730430786904149
2499,3402.59,1.6714565299207538
2500,3403.17,4.4964760543240025
2501,3404.6,1.7604761904766961
2502,3405.17,4.391347105033807
2503,3406.55,1.74547891609825
2504,3407.1,4.653865030675867
2505,3408.51,2.46616006467191
2506,3409.23,4.447606679035734
2507,3410.57,2.378628425386169
2508,3411.33,4.192896111434066
2509,3412.65,1.1435171213004625
2510,3413.01,5.330297397768342
2511,3414.66,1.1908970610867422
2512,3415.02,5.417761425252106
2513,3416.65,1.1630710856431854
2514,3417.0,5.515979381443603
2515,3418.65,1.1399488414080698
2516,3419.0,5.903681630151557
2517,3420.79,1.2074576271190711
2518,3421.15,5.556103896103409
2519,3422.81,1.112000689892871
2520,3423.12,5.638075984663449
2521,3424.68,2.3521455323714546
2522,3425.32,4.806821192052718
2523,3426.65,2.216635325722345
2524,3427.28,4.760486533448125
2525,3428.6,1.7005458552297645
2526,3429.08,5.2560576923086035
2527,3430.55,2.025947914366827
2528,3431.02,7.2351256163414535
2529,3432.62,2.6697153024923916
2530,3433.11,7.761665699360604
2531,3434.56,2.5742408376964327
2532,3435.04,8.366282722512796
2533,3436.6,2.8207022106633057
2534,3437.08,8.855139056831419
2535,3438.68,1.1935906143875785
2536,3439.04,5.018005523166556
2537,3440.56,1.7911924300794801
2538,3441.07,5.496060806344756
2539,3442.65,1.8880632411065352
2540,3443.21,5.290604336459795
2541,3444.81,1.1646490835945111
2542,3445.17,4.937213565536205
2543,3446.67,1.8449532869032816
2544,3447.19,4.7311383709515376
2545,3448.56,2.357631578946801
2546,3449.24,5.270831295844211
2547,3450.77,1.201029340249323
2548,3451.12,5.093676233473881
2549,3452.61,1.7427697289918942
2550,3453.1,5.562771832931271
2551,3454.65,1.6915693967623655
2552,3455.14,5.482610068118199
2553,3456.71,1.2403151952325022
2554,3457.08,5.073261100167287
2555,3458.63,1.8101091630829667
2556,3459.15,5.11503856041131
2557,3460.65,1.870188806472466
2558,3461.18,4.74596214511145
2559,3462.59,1.750866340539626
2560,3463.11,4.97445009535851
2561,3464.58,1.6979153812258505
2562,3465.11,5.201436043746905
2563,3466.65,1.7390550140426235
2564,3467.15,5.168320318989929
2565,3468.63,2.502627503787369
2566,3469.34,4.260440856875899
2567,3470.62,1.7088431641517463
2568,3471.14,5.037961165049417
2569,3472.61,1.7482754976220496
2570,3473.09,5.430853966649694
2571,3474.63,2.291414141414462
2572,3475.28,5.312249454422535
2573,3476.79,1.1924151763334536
2574,3477.13,5.055667894208427
2575,3478.57,1.696086956521017
2576,3479.04,5.282656659102942
2577,3480.5,1.7692502961584025
2578,3481.0,5.400294117646931
2579,3482.54,2.917344782035754
2580,3483.03,12.46202392821366
2581,3484.5,10.750963855426287
2582,3485.01,32.38554376657255
2583,3486.56,2.624645476774038
2584,3487.03,10.094652701211013
2585,3488.58,2.7515533980597433
2586,3489.05,8.57602642603815
2587,3490.52,3.543646702048343
2588,3491.05,9.822728297632588
2589,3492.53,2.5748501600233737
2590,3493.01,9.44925465838352
2591,3494.54,3.3277100494230694
2592,3495.1,11.861372004170036
2593,3497.01,4.62764551651793
2594,3498.57,2.8476422229530836
2595,3499.05,9.049041936583812
2596,3500.53,3.631905972043751
2597,3501.16,9.634534161490345
2598,3502.72,1.7221138211389486
2599,3503.06,7.633012102196325
2600,3504.81,0.8132628909552629
2601,3505.04,5.671108829569308
2602,3506.63,2.005796717839132
2603,3507.18,4.733687099725706
2604,3508.62,1.8070107930547823
2605,3509.16,4.930419645632638
2606,3510.64,1.7796694214874835
2607,3511.18,4.703490057037392
2608,3512.6,7.346583951015457
2609,3514.75,1.1500381194414069
2610,3515.09,5.529266409266037
2611,3516.71,1.2502290076339468
2612,3517.09,4.870729087883117
2613,3518.58,1.8260599382993346
2614,3519.15,4.913740324229473
2615,3520.69,1.831618472162049
2616,3521.27,4.297598253274819
2617,3522.62,1.8497022767072984
2618,3523.2,4.436437246963851
2619,3524.6,2.3165264882584475
2620,3525.36,4.262960893854515
2621,3526.69,1.2111461067370057
2622,3527.07,4.889192037469912
2623,3528.6,1.7671732074364064
2624,3529.15,4.649509658246833
2625,3530.59,1.7801965717871615
2626,3531.12,4.893678269049981
2627,3532.58,2.418511950655419
2628,3533.31,4.0750269853508705
2629,3534.54,1.7879113924057384
2630,3535.07,5.419831290784349
2631,3536.67,1.9315188722151193
2632,3537.26,4.155887521967493
2633,3538.56,1.8135442471271177
2634,3539.12,4.72427187360274
2635,3540.58,2.366666666667589
2636,3541.28,4.882765151514539
2637,3542.73,1.1900030740858805
2638,3543.09,5.368842949706519
2639,3544.71,1.2248983364136867
2640,3545.08,5.152838886353801
2641,3546.65,2.385845790716094
2642,3547.36,4.045494453991685
2643,3548.57,1.871056845475453
2644,3549.12,4.777969401947329
2645,3550.56,1.7165025310629864
2646,3551.08,5.372398616786867
2647,3552.68,1.1818808429738161
2648,3553.03,5.262380056443051
2649,3554.6,1.7007684918347743
2650,3555.1,5.327615230460858
2651,3556.62,1.7131652521226441
2652,3557.11,5.324415628156796
2653,3558.62,2.3163493391344296
2654,3559.28,4.543194351042239
2655,3560.57,1.8704837275467054
2656,3561.08,6.050722668313848
2657,3562.56,3.9576349614386364
2658,3563.24,7.363420479303506
2659,3564.83,1.184658187599056
2660,3565.18,4.688823529412135
2661,3566.56,1.6858997722103808
2662,3567.05,5.641719532553109
2663,3568.66,2.325890368536057
2664,3569.36,4.838378252063578
2665,3570.81,1.2052026921275196
2666,3571.17,4.673067331671126
2667,3572.57,1.7135922330097089
2668,3573.07,5.141364156182878
2669,3574.56,2.4679744064666966
2670,3575.26,5.144467265724483
2671,3576.77,1.1214693604948132
2672,3577.09,6.092077660111007
2673,3578.82,1.1150697337428728
2674,3579.12,6.196345418110099
2675,3580.78,3.435895765469188
2676,3581.04,4.913188849748062
2677,3582.53,2.801428571427225
2678,3583.06,8.528914847832667
2679,3584.58,2.648697068405515
2680,3585.03,8.559930969563855
2681,3586.53,2.956739926738506
2682,3587.06,8.50716287760822
2683,3588.56,3.069384409502819
2684,3589.07,9.303990147781526
2685,3590.64,2.5277283372369723
2686,3591.06,9.2010016977942
2687,3592.57,3.1134662943747315
2688,3593.35,5.009197687025322
2689,3594.7,2.422727272727612
2690,3595.35,5.43887246476446
2691,3596.87,0.578457472369301
2692,3597.04,5.144314868804665
2693,3598.54,1.7809564474807857
2694,3599.04,5.394256584536894
2695,3600.56,2.3031027466941167
2696,3601.21,5.502712721145553
2697,3602.77,1.1342242079607572
2698,3603.1,5.893389245190882
2699,3604.8,1.0934877843300517
2700,3605.11,5.441568627450916
2701,3606.63,1.725443279312832
2702,3607.14,4.791900445030871
2703,3608.52,4.032710592161168
2704,3609.3,5.776976031717225
2705,3610.86,0.6176722321278222
2706,3611.04,5.501169142309164
2707,3612.66,1.7785321100916234
2708,3613.2,4.978606431853706
2709,3614.71,1.1784486525852316
2710,3615.08,4.817180043383891
2711,3616.6,1.5942515319521446
2712,3617.1,5.318624109079338
2713,3618.7,1.2278052550243308
2714,3619.07,5.112991193440452
2715,3620.63,1.832211302210422
2716,3621.16,4.635081967213617
2717,3622.5,2.418494271685132
2718,3623.2,4.793458646617593
2719,3624.61,2.0419063545141807
2720,3625.08,6.708333333333333
2721,3626.58,2.0054763067917825
2722,3627.01,7.442947702060222
2723,3628.51,2.709873868932068
2724,3629.04,7.160655066530282
2725,3630.52,3.1096566837108557
2726,3631.0,10.476676176890734
2727,3632.65,2.8531048121293106
2728,3633.13,7.822577030812943
2729,3634.51,2.2696610169481417
2730,3635.0,6.9654054054051615
2731,3636.56,3.515229073373383
2732,3637.13,8.870340557275878
2733,3638.57,2.536546018614182
2734,3639.09,5.195926254210512
2735,3640.51,1.974056603773585
2736,3641.01,7.382185128983133
2737,3642.55,1.9872221059242954
2738,3643.03,6.12650240170648
2739,3644.7,1.1090843333886982
2740,3645.02,6.319584867760934
2741,3646.82,0.9457884198230633
2742,3647.09,5.408698710433635
2743,3648.63,1.6980680087972222
2744,3649.11,5.335492085339892
2745,3650.6,1.7732100396308776
2746,3651.11,5.355237315874671
2747,3652.66,1.4271373018248852
2748,3653.1,4.852835004557945
2749,3654.58,1.768762135922211
2750,3655.12,4.716703296703539
2751,3656.54,1.8218483937330632
2752,3657.08,5.013343943975869
2753,3658.56,2.0791714836227846
2754,3659.17,4.478663335415852
2755,3660.51,2.348637046933687
2756,3661.18,4.73792620430611
2757,3662.51,2.9110059171586915
2758,3663.35,4.662741547828502
2759,3664.72,1.1554780940203218
2760,3665.06,5.250843373493852
2761,3666.6,1.7532959531943146
2762,3667.11,5.293961352656073
2763,3668.66,1.73334977799704
2764,3669.16,5.387474469120354
2765,3670.73,1.1867867389222293
2766,3671.08,5.3513102119466085
2767,3672.65,1.237906031540025
2768,3673.01,7.13009546539365
2769,3674.8,1.1754624844045627
2770,3675.12,5.164780134506145
2771,3676.56,1.5886639676122993
2772,3677.01,5.7030291330280765
2773,3678.58,1.9529252227818674
2774,3679.08,6.109720514254256
2775,3680.69,2.328703339882696
2776,3681.28,5.50098121085532
2777,3682.71,1.1510249307485112
2778,3683.03,5.687889626979748
2779,3684.63,1.797635379060734
2780,3685.04,8.478184218246703
2781,3686.61,3.7964440350070534
2782,3687.09,6.690170454544544
2783,3688.56,3.046153846155693
2784,3689.01,10.201481197235548
2785,3690.52,3.7131531531527915
2786,3691.08,9.610778032038569
2787,3692.51,3.5699999999983443
2788,3693.02,10.894572025052192
2789,3694.52,3.7240538368836877
2790,3695.05,10.837553324967045
2791,3696.54,2.9761508704074635
2792,3697.05,9.532244747512216
2793,3698.51,3.9507829181474485
2794,3699.08,10.09676056338203
2795,3700.55,3.521811023620414
2796,3701.06,10.549627353053799
2797,3702.62,2.6514071294565125
2798,3703.02,9.357927608232902
2799,3704.5,3.5539634842158723
2800,3705.03,9.853333333333214
2801,3706.55,3.802846975088391
2802,3707.15,8.26355329949316
2803,3708.51,3.6067899891182558
2804,3709.07,9.646270818247647
2805,3710.57,3.268247850577625
2806,3711.17,8.34682926829311
2807,3712.59,3.3082515337408576
2808,3713.08,9.381733046287955
2809,3714.55,3.5231664411362287
2810,3715.13,8.99512888301247
2811,3716.64,2.4781509310687073
2812,3717.06,9.192771285476995
2813,3718.59,2.5752667075415894
2814,3719.05,8.648760981520448
2815,3720.61,2.250215439855575
2816,3721.02,7.9459910539568686
2817,3722.55,2.708907732105671
2818,3723.06,7.35780821917836
2819,3724.5,2.618187515668953
2820,3725.05,7.121141345426016
2821,3726.54,1.8579073756431599
2822,3727.06,5.470347997373352
2823,3728.64,1.7369832402235297
2824,3729.12,5.358406708595454
2825,3730.6,1.7361851475084675
2826,3731.09,5.1179255052615265
2827,3732.55,1.6971540469966664
2828,3733.02,5.931568488289167
2829,3734.64,1.7154152367879856
2830,3735.12,5.101299688904513
2831,3736.54,2.290224877020776
2832,3737.17,5.152700407007077
2833,3738.58,1.717346072187767
2834,3739.05,5.658381173114504
2835,3740.59,1.8062607449848689
2836,3741.08,5.2379425837329645
2837,3742.55,2.2870047011404253
2838,3743.2,4.967611438184436
2839,3744.61,2.2959776536308807
2840,3745.23,4.911428571429105
2841,3746.57,2.1004365904356166
2842,3747.08,7.589373872712953
2843,3748.64,1.7205237767057855
2844,3749.12,5.553492286115733
2845,3750.65,2.034556637622085
2846,3751.07,8.403958269407795
2847,3752.57,3.0108804820890525
2848,3753.07,9.675370121130003
2849,3754.67,2.146756756756056
2850,3755.06,7.9856257449346435
2851,3756.52,3.1304417670681635
2852,3757.04,9.012484266314651
2853,3758.55,2.600141342756282
2854,3759.03,8.201934666289663
2855,3760.6,2.3715188762074937
2856,3761.04,6.780514756349548
2857,3762.57,1.9375051315534961
2858,3763.08,6.364264894985918
2859,3764.59,2.2669656992088356
2860,3765.01,8.58936634881432
2861,3766.54,3.1010721376570722
2862,3767.06,8.593550488599563
2863,3768.52,3.5267994899592954
2864,3769.13,7.984097199870623
2865,3770.5,3.698181818182458
2866,3771.13,8.259130704750284
2867,3772.59,3.328954501450382
2868,3773.16,8.26365984569145
2869,3774.53,2.9699999999987354
2870,3775.0,10.59196506550136
2871,3776.64,2.3821605550054974
2872,3777.04,9.096218771100608
2873,3778.54,2.8630753564170295
2874,3779.01,9.522808002807889
2875,3780.53,12.820326281819936
2876,3782.54,2.7266236781013595
2877,3783.1,8.88624618514773
2878,3784.56,2.726559865094402
2879,3785.01,9.306530880418773
2880,3786.58,3.061041069724174
2881,3787.11,8.889665924275958
2882,3788.65,2.346156341226612
2883,3789.05,8.520871261377344
2884,3790.5,2.9666473988452005
2885,3791.01,8.50074074073941
2886,3792.52,3.2255150884494186
2887,3793.04,9.4635466303619
2888,3794.59,2.8033301064860696
2889,3795.07,8.786938775510537
2890,3796.51,3.430586592177069
2891,3797.06,9.639770354907187
2892,3798.61,2.5239911588257
2893,3799.05,8.610431217733073
2894,3800.6,1.988562351072732
2895,3801.0,6.638994162550437
2896,3802.52,2.4295748942797544
2897,3803.08,6.091836734693877
2898,3804.58,1.7571237009721756
2899,3805.08,5.193396851699251
2900,3806.57,1.9728986645718773
2901,3807.07,7.441890648952303
2902,3808.61,2.2627755355484807
2903,3809.01,9.414770153229433
2904,3810.58,2.7233637192355893
2905,3811.07,7.94145433724592
2906,3812.57,2.950980392156863
2907,3813.07,8.715984354628528
2908,3814.55,2.542310405642657
2909,3815.02,8.48629955947225
2910,3816.59,2.5156234096693066
2911,3817.07,8.124016028493912
2912,3818.56,2.579815668202969
2913,3819.02,9.72510548523321
2914,3820.57,3.739466192168859
2915,3821.16,9.002605042018235
2916,3822.65,2.409264287970105
2917,3823.07,9.22023210831679
2918,3824.65,2.521640735502695
2919,3825.05,9.442110836569007
2920,3826.55,3.117890624998502
2921,3827.08,9.202511969359284
2922,3828.67,2.1308683853454435
2923,3829.02,9.520252210940813
2924,3830.63,2.3747005895132873
2925,3831.05,8.8370731707316
2926,3832.57,2.7550231124795124
2927,3833.06,8.697165149544968
2928,3834.54,3.1634859521345486
2929,3835.05,8.789317269076523
2930,3836.51,3.084102564102456
2931,3837.03,8.945981615231691
2932,3838.54,2.9953801169603467
2933,3839.05,8.746493506492225
2934,3840.54,3.081755593803787
2935,3841.04,9.689625292740814
2936,3842.65,2.7813193403303167
2937,3843.07,9.757868601985024
2938,3844.52,3.9815885947042964
2939,3845.08,10.226949960287712
2940,3846.55,2.86877509356802
2941,3847.02,9.49180722891544
2942,3848.56,3.4177588085737565
2943,3849.09,9.653784977908808
2944,3850.57,3.4555532574970775
2945,3851.13,8.752185886403202
2946,3852.55,3.2996330275214656
2947,3853.04,10.41501742160415
2948,3854.57,3.6884916201113724
2949,3855.13,9.052236980075762
2950,3856.58,2.9230271398763232
2951,3857.05,9.576239316237816
2952,3858.56,3.1375320139699805
2953,3859.02,10.114610244988626
2954,3860.56,3.393986735445718
2955,3861.08,9.711678832116789
2956,3862.58,3.0080898876405633
2957,3863.06,9.105041551248114
2958,3864.53,3.5041111873695217
2959,3865.1,9.031020408163377
2960,3866.58,3.575829959515052
2961,3867.17,8.217111984282155
2962,3868.56,3.0491922005585748
2963,3869.05,9.389589041094325
2964,3870.58,2.6464948453626165
2965,3871.01,9.848487394955894
2966,3872.64,2.5387642782989035
2967,3873.05,9.872059527880303
2968,3874.66,2.316685373555303
2969,3875.03,9.89311788468589
2970,3876.55,5.213651780664457
2971,3877.1,6.051441617743298
2972,3878.52,3.4847910863506355
2973,3879.08,9.08429153924711
2974,3880.57,2.8059840954262407
2975,3881.04,8.697696737044145
2976,3882.54,3.193199705775723
2977,3883.03,10.195799086757868
2978,3884.55,3.93349331235047
2979,3885.12,9.654451150511058
2980,3886.57,3.945114503814965
2981,3887.08,11.617699443414018
2982,3888.54,3.3750542822679206
2983,3889.02,10.650435835352628
2984,3890.53,3.445367913146837
2985,3891.02,11.025242035582743
2986,3892.55,2.9128274428262024
2987,3893.02,9.367132867132867
2988,3894.52,3.378121934127313
2989,3895.06,9.300262008733975
2990,3896.5,3.504111187372317
2991,3897.07,8.800454250486698
2992,3898.57,3.1624068157614484
2993,3899.07,9.034322469981618
2994,3900.54,2.956780185758626
2995,3901.02,9.951968911917886
2996,3902.63,2.648782249740994
2997,3903.06,8.98760906323988
2998,3904.54,3.863333333334792
2999,3905.07,12.011309297912861
3000,3906.55,3.4782637954225506
3001,3907.0,11.368421052631579
3002,3908.5,3.78763496144121
3003,3909.01,11.282608695652174
3004,3910.51,4.069624573376821
3005,3911.06,10.174428399520567
3006,3912.51,3.53624129930382
3007,3913.03,9.817123695974718
3008,3914.52,3.859041095890276
3009,3915.04,11.193333333333612
3010,3916.5,4.266397694524347
3011,3917.02,20.902123287674254
3012,3918.53,8.0
3013,3919.03,23.525680238331965
3014,3920.51,8.138283038497937
3015,3921.0,26.523147153601396
3016,3922.55,6.524482758617784
3017,3923.04,17.79615763546756
3018,3924.58,5.384632152588759
3019,3925.06,17.7546428571433
3020,3926.52,6.02047404063496
3021,3927.01,19.07986332573987
3022,3928.55,5.946742671007368
3023,3929.0,19.34642689601228
3024,3930.52,5.852178770952226
3025,3931.03,17.805714285714075
3026,3932.55,5.890755225890628
3027,3933.08,16.49043596730531
3028,3934.55,5.137966101695321
3029,3935.01,17.375369127513558
3030,3936.58,4.908517264726405
3031,3937.02,16.582040816326735
3032,3938.5,5.577860528097495
3033,3939.0,16.891445783134742
3034,3940.53,5.530181086519115
3035,3941.03,17.54317725752167
3036,3942.62,2.7400936037447727
3037,3943.02,9.850590717300607
3038,3944.59,2.806726422446393
3039,3945.0,10.817108433734683
3040,3946.54,3.6187271103190666
3041,3947.01,10.99659293917321
3042,3948.5,3.81478178368231
3043,3949.07,10.084988730277866
3044,3950.59,2.8002059852302534
3045,3951.0,10.610909090908963
3046,3952.52,3.940281690140461
3047,3953.08,10.73957137080456
3048,3954.6,2.8928421477615682
3049,3955.01,11.081308562195037
3050,3956.58,3.062653061226563
3051,3957.01,10.530310633212212
3052,3958.52,3.383700787403208
3053,3959.01,10.805294117645056
3054,3960.58,2.953474178405755
3055,3961.01,10.320070560564485
3056,3962.51,14.336093749997879
3057,3964.6,2.9241995359648563
3058,3965.03,10.234961479197162
3059,3966.54,3.333745541022718
3060,3967.02,10.537500996414437
3061,3968.53,3.6292448512583366
3062,3969.07,9.969012738852362
3063,3970.5,13.46350783339702
3064,3972.5,3.266354762705939
3065,3973.04,9.485352112677429
3066,3974.55,3.0505270863823033
3067,3975.02,9.880836083608243
3068,3976.54,3.5719780219792034
3069,3977.09,9.27176214648331
3070,3978.53,3.6413958248038782
3071,3979.04,10.77070457354759
3072,3980.54,3.316372512204281
3073,3981.04,9.398802588998391
3074,3982.51,3.5388893002589246
3075,3983.05,10.388507223114093
3076,3984.53,3.3173344103378453
3077,3985.0,11.131510353228931
3078,3986.57,3.3101886792454085
3079,3987.05,10.153481392555749
3080,3988.5,3.4148853478429846
3081,3989.0,10.588178613395753
3082,3990.54,3.55054054054206
3083,3991.05,10.5476817288784
3084,3992.58,3.717650360867482
3085,3993.11,10.391512639867779
3086,3994.55,3.3576978417267465
3087,3995.03,10.721029235080314
3088,3996.56,3.5798234349935067
3089,3997.07,10.745442404006809
3090,3998.55,4.304315068492611
3091,3999.13,10.573416415986792
3092,4000.55,3.8705154639173904
3093,4001.07,11.375006634230974
3094,4002.56,3.3726213592235674
3095,4003.02,11.194468085105628
3096,4004.64,2.905219206681245
3097,4005.04,10.804214197785724
3098,4006.55,3.509651207359019
3099,4007.07,9.586924803590268
3100,4008.52,3.7726562500012477
3101,4009.07,10.422496954931589
3102,4010.54,3.9793877551037444
3103,4011.05,10.541224489796047
3104,4012.53,5.523287671230644
3105,4013.43,7.412134831462962
3106,4014.55,3.3768813825593758
3107,4015.04,10.539775010044194
3108,4016.54,3.399708029197209
3109,4017.02,10.754897959185227
3110,4018.53,3.3961603888215137
3111,4019.01,10.432115919015482
3112,4020.51,3.7948870636532077
3113,4021.04,10.559035449301089
3114,4022.51,4.268536585363563
3115,4023.12,9.912363194163595
3116,4024.52,3.9419319613605075
3117,4025.06,12.967806832559969
3118,4026.83,1.465980861244273
3119,4027.04,9.90255975327704
3120,4028.5,4.608582058701026
3121,4029.14,8.316410048623654
3122,4030.315,5.546622593611972
3123,4031.07,10.30586319218112
3124,4032.52,3.827711561383864
3125,4033.07,10.889706362151532
3126,4034.6,3.8164820173639877
3127,4035.13,10.760936454849631
3128,4036.61,2.8783147459733933
3129,4037.01,10.70269579554666
3130,4038.5,3.5450669914738127
3131,4039.0,11.468206152615968
3132,4040.64,2.8489795918373826
3133,4041.04,11.181710526315399
3134,4042.6,3.6818451025076895
3135,4043.07,10.953870967740444
3136,4044.54,3.3553993610224913
3137,4045.02,10.588156312626781
3138,4046.53,4.196356968212959
3139,4047.12,10.427483221478633
3140,4048.55,3.3522567457058505
3141,4049.02,10.653783563873066
3142,4050.52,3.9534007585332356
3143,4051.06,10.788984022942978
3144,4052.57,3.9283783783764297
3145,4053.12,9.807440452162181
3146,4054.51,3.5122039473668565
3147,4055.0,10.292886597939493
3148,4056.53,3.9146003262623323
3149,4057.08,10.5856063618289
3150,4058.6,2.9633992733150065
3151,4059.02,10.5
3152,4060.52,3.4388714733542325
3153,4061.02,10.798056426333414
3154,4062.59,2.9475644028091823
3155,4063.02,10.24805598755832
3156,4064.52,3.5761322645305884
3157,4065.03,11.112463465551386
3158,4066.56,5.234838160138017
3159,4067.11,5.8425639940769605
3160,4068.51,3.871537622682074
3161,4069.11,9.205087719298717
3162,4070.53,3.2891409445890667
3163,4071.03,10.88792569659381
3164,4072.63,3.0009094633352187
3165,4073.05,10.754210526314326
3166,4074.52,3.2921349599710896
3167,4075.01,10.534598401216167
3168,4076.58,2.9022115753181774
3169,4077.01,10.022727272727273
3170,4078.51,3.89201110670331
3171,4079.07,10.28921259842369
3172,4080.56,3.397436708862399
3173,4081.05,10.258271701050994
3174,4082.55,3.501787250682772
3175,4083.06,9.944250576481355
3176,4084.53,3.3901734104046244
3177,4085.03,10.667423312882944
3178,4086.61,2.8742267238026016
3179,4087.03,10.271929824561402
3180,4088.53,3.3859810874689407
3181,4089.02,10.40383854372774
3182,4090.52,3.836131045241436
3183,4091.08,10.71134923738719
3184,4092.64,2.4893375394330572
3185,4093.0,10.613055773762515
3186,4094.54,3.5036043251902282
3187,4095.04,11.135160905842818
3188,4096.64,2.9269637883013426
3189,4097.06,10.60366533864212
3190,4098.58,3.370405459658078
3191,4099.06,10.653783563873066
3192,4100.56,3.4080195201270347
3193,4101.04,10.739828850857299
3194,4102.55,3.320188679243804
3195,4103.04,10.265120696481317
3196,4104.52,3.79955734406413
3197,4105.06,11.230956175293802
3198,4106.53,3.432353883111327
3199,4107.02,10.688514851484895
3200,4108.56,2.9904591644699994
3201,4109.01,10.12377358490251
3202,4110.53,3.803736762485217
3203,4111.1,9.851672555943914
3204,4112.53,3.3689659224489357
3205,4113.02,10.470397350991634
3206,4114.55,3.3543803585331897
3207,4115.04,10.299617658650444
3208,4116.53,3.903333333337568
3209,4117.1,9.795899419726485
3210,4118.54,3.4171528588098017
3211,4119.04,10.494843749998253
3212,4120.57,2.9315062287689653
3213,4121.01,10.353429988553742
3214,4122.55,3.8172464868951264
3215,4123.12,9.48314087760185
3216,4124.52,3.813550834595928
3217,4125.09,9.66732718894206
3218,4126.52,5.930754716978873
3219,4127.38,8.16324951643977
3220,4128.58,3.0151703406834036
3221,4129.01,10.636353458613245
3222,4130.53,3.877954820493416
3223,4131.08,10.945537459283129
3224,4132.62,2.8379510461892807
3225,4133.03,10.188861209966177
3226,4134.5,3.882784810129357
3227,4135.06,10.004631245040837
3228,4136.5,3.8054208902600264
3229,4137.0,12.403054892604993
3230,4138.52,3.4669137302536197
3231,4139.01,10.13194902548557
3232,4140.54,3.450128876357706
3233,4141.03,10.754507897937476
3234,4142.55,3.3692455858717354
3235,4143.03,10.435223880600349
3236,4144.51,3.378015717090833
3237,4145.0,10.460573476702509
3238,4146.5,3.95256865913045
3239,4147.06,10.363553421365491
3240,4148.54,3.471473851030111
3241,4149.04,10.378441660142455
3242,4150.55,3.9351870420357575
3243,4151.13,9.65665893271511
3244,4152.55,3.3859810874689407
3245,4153.04,10.717981072556464
3246,4154.59,2.9524872897947243
3247,4155.02,10.913690383106562
3248,4156.61,3.543306899287798
3249,4157.12,9.629976680916224
3250,4158.53,3.3859810874752254
3251,4159.02,10.320070560564485
3252,4160.52,3.4068292682895844
3253,4161.0,10.650957148581353
3254,4162.52,3.0586567164177043
3255,4163.06,9.232207792205227
3256,4164.5,4.014017857140702
3257,4165.11,9.278303571433598
3258,4166.52,3.515354862934849
3259,4167.05,9.414115708530492
3260,4168.5,3.903787375415019
3261,4169.04,10.728876127973749
3262,4170.54,2.9278111587985145
3263,4171.0,9.137474541751528
3264,4172.5,8.834265505988547
3265,4173.01,61.89540540539634
3266,4174.5,12.34834123222749
3267,4175.0,38.937603993344425
3268,4176.5,14.89539347408829
3269,4177.0,61.340425531914896
3270,4178.5,15.682186234817815
3271,4179.0,42.409090909090914
3272,4180.5,17.249606126922043
3273,4181.01,52.63866817156517
3274,4182.52,14.363216266173751
3275,4183.02,43.5803954802196
3276,4184.51,13.916815742397137
3277,4185.01,39.25167785234899
3278,4186.51,11.677214611866946
3279,4187.0,35.74657534246575
3280,4188.5,11.37647727273214
3281,4189.01,33.05680224403927
3282,4190.51,11.12675832126856
3283,4191.0,34.33608695652671
3284,4192.51,11.37647727273214
3285,4193.02,32.270568654636804
3286,4194.5,10.58905138340374
3287,4195.01,31.014438573311175
3288,4196.5,10.510000000004498
3289,4197.01,29.80188679245283
3290,4198.51,9.013053348467652
3291,4199.01,27.508626309658368
3292,4200.5,9.022727272727273
3293,4201.0,26.171052631578945
3294,4202.5,8.5042689434365
3295,4203.0,26.548024948030985
3296,4204.6,9.957326440162932
3297,4205.03,30.055669586992362
3298,4206.55,4.77821470244828
3299,4207.04,14.953530499076157
3300,4208.5,4.860567612691894
3301,4209.02,13.731655629135023
3302,4210.5,5.872407732868235
3303,4211.1,13.789380530969868
3304,4212.5,4.5068652037636845
3305,4213.01,16.312376563528638
3306,4214.51,4.216551040634291
3307,4215.01,13.629380053908356
3308,4216.51,5.8631578947315095
3309,4217.11,13.365811965817175
3310,4218.51,4.893673110720562
3311,4219.01,13.661287553650043
3312,4220.52,5.143592175454717
3313,4221.04,17.56773584905368
3314,4222.57,2.886256486289479
3315,4223.01,10.038499452356053
3316,4224.56,3.4228656494200353
3317,4225.08,9.822728297635607
3318,4226.56,3.9917647058818524
3319,4227.14,9.544086820488769
3320,4228.53,3.4194539657282195
3321,4229.02,10.505361752051439
3322,4230.55,3.3358536585383924
3323,4231.02,10.926057813154587
3324,4232.52,3.510797546009077
3325,4233.04,10.7908739076139
3326,4234.53,4.321659192826962
3327,4235.04,11.752201591511659
3328,4236.58,4.075150410213084
3329,4237.1,10.723077939232711
3330,4238.51,4.458006993008093
3331,4239.1,11.471986032296737
3332,4240.62,2.775964691047456
3333,4241.0,11.725073848830116
3334,4242.56,3.7508695652157202
3335,4243.05,10.868093480931426
3336,4244.57,3.5154131534604622
3337,4245.05,10.729999999996835
3338,4246.53,3.7863316582946354
3339,4247.05,10.826980325064428
3340,4248.51,3.600454733360893
3341,4249.01,11.191449275363343
3342,4250.6,3.3607373868032986
3343,4251.05,11.12360992301112
3344,4252.55,3.2798844161038097
3345,4253.02,10.713548387093441
3346,4254.54,3.5834482758655994
3347,4255.02,14.788193869091684
3348,4257.07,5.857177914112501
3349,4258.51,4.247145085802685
3350,4259.13,9.93515463917728
3351,4260.56,3.374615384613881
3352,4261.05,10.226949960287712
3353,4262.52,3.6575703942042357
3354,4263.04,10.4343498817982
3355,4264.55,4.328241758239548
3356,4265.12,10.029539207761225
3357,4266.54,3.2716186252771617
3358,4267.04,10.394382470118
3359,4268.53,4.12385235469111
3360,4269.09,10.847735770668884
3361,4270.59,3.143535514763294
3362,4271.04,10.272395209582617
3363,4272.51,3.7075766244347155
3364,4273.03,11.127834394906067
3365,4274.54,3.322732404968009
3366,4275.04,10.419297423890582
3367,4276.56,3.222830925415267
3368,4277.03,10.613697749197675
3369,4278.54,3.586125970667899
3370,4279.02,10.941879983214434
3371,4280.52,3.4198516546168944
3372,4281.03,10.059325842699518
3373,4282.55,3.466772151898734
3374,4283.05,10.65162162161985
3375,4284.58,3.0017703349302614
3376,4285.01,10.203450292396166
3377,4286.5,3.5290791599353795
3378,4287.0,11.092499999998154
3379,4288.53,3.906613545819525
3380,4289.09,9.836294820716116
3381,4290.5,3.91900117508613
3382,4291.07,10.664940008278128
3383,4292.55,3.8412499999965064
3384,4293.11,10.282949640289551
3385,4294.58,3.0151703406834036
3386,4295.01,11.371519805979903
3387,4296.62,3.1066666666702627
3388,4297.06,9.889561200924033
3389,4298.52,3.2726432532347505
3390,4299.02,9.666969147005446
3391,4300.52,3.6446377922573245
3392,4301.06,9.948372093023504
3393,4302.52,3.4114906832298133
3394,4303.02,10.399324960748771
3395,4304.53,3.9051781123784237
3396,4305.13,9.228853974121044
3397,4306.54,4.000075557237031
3398,4307.14,9.40650168728957
3399,4308.56,3.5266076140201674
3400,4309.09,9.325419161675683
3401,4310.5,3.409959244167368
3402,4311.02,9.723594504267462
3403,4312.5,3.416398069070822
3404,4313.02,9.687024029572004
3405,4314.5,3.3527957398250288
3406,4315.0,10.719184149182162
3407,4316.57,3.8826695079468703
3408,4317.14,9.30392523364262
3409,4318.5,3.876225819189505
3410,4319.06,10.1195492289445
3411,4320.52,3.445367913146837
3412,4321.01,10.539775010044194
3413,4322.51,3.8968559837741084
3414,4323.06,10.532517061421117
3415,4324.56,3.3082515337408576
3416,4325.05,10.638070106340827
3417,4326.59,4.164859813080325
3418,4327.11,11.889510489515123
3419,4328.51,3.865263157896391
3420,4329.02,9.847885412737389
3421,4330.5,3.9577215189870754
3422,4331.04,10.653954659949887
3423,4332.5,3.7119914346895078
3424,4333.0,11.654909404662178
3425,4334.56,3.9804507379317533
3426,4335.13,9.454185680565729
3427,4336.5,3.494011976047904
3428,4337.0,10.823438113946912
3429,4338.57,2.9234334921263834
3430,4339.02,10.330211480357688
3431,4340.57,2.978461538464986
3432,4341.01,9.79237741456023
3433,4342.5,4.197383918460524
3434,4343.13,9.497360637088086
3435,4344.55,3.9195711060957747
3436,4345.14,8.986168224296902
3437,4346.5,4.1044511052821555
3438,4347.12,9.456472883340584
3439,4348.5,3.850890253259737
3440,4349.07,10.019739952723704
3441,4350.52,4.12575709148487
3442,4351.11,10.292822343558706
3443,4352.52,2.98523388116037
3444,4353.04,10.367497089642093
3445,4354.56,4.288286669447016
3446,4355.15,9.37857365550041
3447,4356.52,3.167569988798911
3448,4357.0,10.66050156739937
3449,4358.55,3.6418010291578975
3450,4359.04,12.124334085781891
3451,4360.6,3.0461538461526145
3452,4361.05,9.245031228312317
3453,4362.54,3.481275626426613
3454,4363.06,10.120689655172413
3455,4364.56,3.3735632183908044
3456,4365.06,10.076557377044692
3457,4366.53,3.3060919540276523
3458,4367.02,10.90640624999476
3459,4368.61,2.8209146341468303
3460,4369.03,10.211498271226985
3461,4370.54,3.465950540959752
3462,4371.05,9.989970048672353
3463,4372.56,3.9085396329538806
3464,4373.13,9.372277992278732
3465,4374.51,3.981094605159782
3466,4375.09,10.005345622116865
3467,4376.57,2.9942894836083087
3468,4377.02,9.952042489745724
3469,4378.53,3.419858233373909
3470,4379.06,9.801640014873984
3471,4380.55,3.335538752362949
3472,4381.05,10.133921719109745
3473,4382.55,3.047152751056868
3474,4383.0,10.357656250001497
3475,4384.51,3.446660268715487
3476,4385.02,9.967804331586176
3477,4386.53,4.125174798313579
3478,4387.14,9.078029007066542
3479,4388.52,3.5691697830962443
3480,4389.06,9.428165680470752
3481,4390.5,5.107439353098605
3482,4391.16,9.710249307483009
3483,4392.56,2.6765299898315202
3484,4393.0,9.930846349436743
3485,4394.54,4.03224037339656
3486,4395.13,9.671707317070483
3487,4396.57,3.404186550980344
3488,4397.1,8.87330960853862
3489,4398.5,3.834604810994606
3490,4399.07,10.157943262413108
3491,4400.54,3.35280936454993
3492,4401.05,9.517395143488097
3493,4402.51,3.6904644080712625
3494,4403.06,9.361967988358229
3495,4404.51,3.5687764894057654
3496,4405.02,10.805294117645056
3497,4406.59,2.9966871165649365
3498,4407.01,11.340056406121787
3499,4408.62,2.791987951807712
3500,4409.04,10.218969858835441
3501,4410.56,3.0343396226387496
3502,4411.0,10.374368932041813
3503,4412.52,3.977110694180248
3504,4413.12,9.174317180615793
3505,4414.53,3.5100000000015026
3506,4415.04,10.74367346939051
3507,4416.6,2.8709843937564843
3508,4417.01,10.57258064516129
3509,4418.51,3.3283104540638706
3510,4419.04,9.639658119660888
3511,4420.56,2.989503386003306
3512,4421.01,9.998988471547651
3513,4422.53,4.308474114442163
3514,4423.16,10.30285609127667
3515,4424.74,2.881166996327599
3516,4425.29,5.087460510328949
3517,4426.55,2.099069035302791
3518,4427.03,6.5381999570915195
3519,4428.58,2.312443922239603
3520,4429.13,5.812022471911296
3521,4430.56,2.212708333331321
3522,4431.08,6.161871750432503
3523,4432.53,2.7327014218026044
3524,4433.13,6.232691194706619
3525,4434.65,2.009169286035184
3526,4435.11,5.847353980461742
3527,4436.53,3.748811881188768
3528,4437.16,7.6194592172112365
3529,4438.55,3.0333570701938113
3530,4439.18,6.611351351348325
3531,4440.69,1.6377228596650777
3532,4441.07,6.650471022861548
3533,4442.56,2.110133104336625
3534,4443.06,6.220869565217547
3535,4444.52,2.614460310790463
3536,4445.15,8.423914081147597
3537,4447.13,6.150684489514199
3538,4448.51,2.2443793864026107
3539,4449.07,6.252199719271706
3540,4450.63,2.3488057652699763
3541,4451.16,6.401335740072361
3542,4452.62,1.838571428570776
3543,4453.03,6.599582504973004
3544,4454.56,2.579785815313879
3545,4455.2,5.698294285088369
3546,4456.53,2.098627808137767
3547,4457.05,6.613167649537252
3548,4458.64,1.52360631885218
3549,4459.01,6.831758241758867
3550,4460.6,2.1603785488939344
3551,4461.12,6.329148936171128
3552,4462.63,2.173723275514174
3553,4463.17,5.87099378882107
3554,4464.6,1.6944611528816043
3555,4465.01,7.123676656817374
3556,4466.72,1.333853173798124
3557,4467.05,6.337206764865662
3558,4468.75,1.1646243181407674
3559,4469.07,6.020475013245855
3560,4470.72,1.8990664780746518
3561,4471.24,5.376645456354601
3562,4472.59,2.427607555089456
3563,4473.26,4.509604709839305
3564,4474.54,2.8548180815884714
3565,4475.3,5.520330639236812
3566,4476.77,1.14107423879472
3567,4477.09,5.537333682555389
3568,4478.62,1.5838647699984272
3569,4479.04,6.549474775398508
3570,4480.51,2.8024137931039337
3571,4481.14,5.122545649836738
3572,4482.53,2.2528748068010085
3573,4483.16,5.005237926764151
3574,4484.53,2.286131159555213
3575,4485.14,5.6006628137955214
3576,4486.65,2.4277434519829875
3577,4487.34,4.4961308950904435
3578,4488.66,1.7829284981183715
3579,4489.16,5.614729315627933
3580,4490.74,1.2562724550895434
3581,4491.07,6.178810601163697
3582,4492.53,2.4465135305229446
3583,4493.12,5.266673960612148
3584,4494.53,1.8943112102621305
3585,4495.03,6.029914686169768
3586,4496.52,1.8845301827579841
3587,4497.02,6.153044145217469
3588,4498.75,1.0998578030579012
3589,4499.05,6.603424358272402
3590,4500.82,1.1863325589118916
3591,4501.16,4.6971503353529025
3592,4502.52,1.6789356195398537
3593,4503.01,5.300741687978763
3594,4504.5,1.7158638083235591
3595,4505.01,5.776468111646757
3596,4506.74,1.2225278377941908
3597,4507.09,4.769041095891382
3598,4508.52,1.794646840148578
3599,4509.06,4.992704129152436
3600,4510.56,2.4400845451456936
3601,4511.25,4.551888782359075
3602,4512.59,2.3226887025162855
3603,4513.26,5.535933900851022
3604,4514.84,0.5493575600254574
3605,4515.0,5.370845771144152
3606,4516.54,2.2169601149851745
3607,4517.14,5.504028540063409
3608,4518.61,2.2037989897251475
3609,4519.22,5.516722094460593
3610,4520.73,1.1789909995275163
3611,4521.08,5.474165636587173
3612,4522.73,1.2273406983641806
3613,4523.04,6.100281267580612
3614,4524.64,2.1861839003027477
3615,4525.26,5.415184404635666
3616,4526.75,1.1886296617516894
3617,4527.08,6.024550042052273
3618,4528.79,1.2584264446930815
3619,4529.16,4.62243403166678
3620,4530.52,1.6890680100740305
3621,4531.0,5.425618166526364
3622,4532.54,2.271328124999499
3623,4533.2,4.9245640398413535
3624,4534.56,1.8450731421858435
3625,4535.03,5.392566788897211
3626,4536.52,2.4205661034632717
3627,4537.19,5.619427231620771
3628,4538.79,1.053832747285389
3629,4539.11,4.64124093224444
3630,4540.51,1.739130978429178
3631,4541.03,5.493434190621683
3632,4542.59,1.7404641856740513
3633,4543.17,4.865551631584794
3634,4544.73,1.0654833468738367
3635,4545.04,5.652911208150137
3636,4546.69,1.577059271676093
3637,4547.17,4.77957300049307
3638,4548.55,2.1585873433377984
3639,4549.2,5.731816367266613
3640,4550.84,1.143410911287321
3641,4551.19,4.6208588957073236
3642,4552.59,1.732498056892564
3643,4553.11,5.24731731240955
3644,4554.63,1.7852068126504446
3645,4555.15,5.37905138339984
3646,4556.7,1.164584949574523
3647,4557.05,5.387840616966333
3648,4558.63,1.6729746637472631
3649,4559.13,4.688823529412135
3650,4560.51,1.6884012042465535
3651,4561.01,27.84613207546762
3652,4562.5,15.628577075105502
3653,4563.01,42.101397849468455
3654,4564.52,13.168918918918918
3655,4565.02,38.75165562913907
3656,4566.52,10.329521203820976
3657,4567.0,30.346153846153847
3658,4568.5,11.046315789482959
3659,4569.02,31.741935483870968
3660,4570.52,10.318994974864989
3661,4571.04,28.102335766424055
3662,4572.5,8.594534161497899
3663,4573.02,23.488031496059552
3664,4574.51,7.1962043795588375
3665,4575.0,22.469781021894068
3666,4576.53,6.902481751828558
3667,4577.0,22.290410347906274
3668,4578.55,6.0037519623266435
3669,4579.02,17.996646971932368
3670,4580.51,5.908729710658846
3671,4581.02,17.619530583206732
3672,4582.53,5.939382540811627
3673,4583.04,17.59442060085837
3674,4584.54,5.503335557038025
3675,4585.04,16.29975967957797
3676,4586.52,5.902371134017988
3677,4587.01,26.456169265025903
3678,4589.19,4.379671440608944
3679,4590.6,2.4166110531806586
3680,4591.27,4.529830737981495
3681,4592.55,1.787113163972166
3682,4593.09,4.687631935046058
3683,4594.53,2.2109383624657415
3684,4595.2,5.016158940399125
3685,4596.64,1.211929611650128
3686,4597.01,5.135655930871101
3687,4598.54,1.8390479499660408
3688,4599.05,5.676341134870037
3689,4600.66,1.7246713242306526
3690,4601.17,5.191550451189499
3691,4602.67,1.2357703535506115
3692,4603.03,5.103217993080468
3693,4604.5,1.807709923664896
3694,4605.01,5.286105054507771
3695,4606.53,2.3206626990519825
3696,4607.21,6.951640624998372
3697,4609.23,4.431525019858383
3698,4610.54,1.7816131237183868
3699,4611.04,5.807080291969622
3700,4612.65,1.2589956751588982
3701,4613.02,5.157930423576315
3702,4614.53,1.8475060532686407
3703,4615.07,5.102997090206053
3704,4616.56,2.3598626373621174
3705,4617.22,4.796221919671309
3706,4618.57,2.3094501832717333
3707,4619.23,5.37070089512061
3708,4620.75,1.0886336235780965
3709,4621.06,5.287972235992405
3710,4622.58,1.6444127936040893
3711,4623.05,5.416622318310964
3712,4624.6,1.7339585389930898
3713,4625.1,5.438610135471606
3714,4626.65,2.406484641640727
3715,4627.35,4.408452860596169
3716,4628.64,1.739130978429178
3717,4629.16,4.833435177540363
3718,4630.55,3.3908133971261027
3719,4631.07,10.747708495717404
3720,4632.64,2.453481265915583
3721,4633.02,9.99226579520228
3722,4634.57,2.9853143077550945
3723,4635.01,13.62474913825801
3724,4637.03,8.588125000001241
3725,4638.54,2.9514869390475797
3726,4639.03,9.05287009063444
3727,4640.53,2.977309644674251
3728,4641.02,9.464736842103509
3729,4642.59,2.8565944482073706
3730,4643.06,9.418020304564106
3731,4644.61,2.603393870603775
3732,4645.0,10.140858085811182
3733,4646.56,2.893177570089537
3734,4647.07,8.706856386499226
3735,4648.53,3.123597540144828
3736,4649.04,9.66046368905513
3737,4650.62,2.5595980426415244
3738,4651.03,9.044930139721867
3739,4652.54,3.039761904763206
3740,4653.05,8.852941176470587
3741,4654.55,2.9531367292212045
3742,4655.04,9.655607034157123
3743,4656.63,2.476807051910321
3744,4657.05,8.607519582245645
3745,4658.51,3.9656865513596697
3746,4659.14,8.927001733099772
3747,4660.58,3.099158679444839
3748,4661.07,9.38752650177114
3749,4662.56,2.8572753209688884
3750,4663.01,9.780088495576369
3751,4664.56,3.492225392292099
3752,4665.11,8.685311406580071
3753,4666.5,3.3794623655897738
3754,4667.03,9.936593406597659
3755,4668.56,2.8607142857131294
3756,4669.01,9.911250941972927
3757,4670.5,3.4678458049915735
3758,4671.02,10.38379785604876
3759,4672.56,3.033636363632137
3760,4673.03,9.631550415612578
3761,4674.53,3.4869075694209575
3762,4675.05,10.001341653666396
3763,4676.51,3.973246647700572
3764,4677.07,9.754087759818692
3765,4678.51,3.877494537505578
3766,4679.11,9.440448199857787
3767,4680.56,2.772155477029281
3768,4681.0,9.826966892133585
3769,4682.55,3.021574375680247
3770,4683.02,9.549862964297194
3771,4684.51,3.353153409089298
3772,4685.04,9.547149187592556
3773,4686.5,3.8399687622050087
3774,4687.06,9.842602892102336
3775,4688.56,3.451719955896908
3776,4689.09,9.217308970098717
3777,4690.5,4.005221339389489
3778,4691.1,9.177777777775393
3779,4692.5,3.428733307899216
3780,4693.01,10.447818599312361
3781,4694.56,3.089573170731952
3782,4695.02,10.157819548870489
3783,4696.55,3.7036697247718666
3784,4697.1,9.910588235291364
3785,4698.54,3.3113016122722363
3786,4699.02,10.428571428571429
3787,4700.52,3.473830293417922
3788,4701.02,10.743673469384248
3789,4702.58,3.299107282697064
3790,4703.06,9.828349514560376
3791,4704.5,3.7957473035466265
3792,4705.06,10.21660105980148
3793,4706.59,3.701489361703712
3794,4707.1,10.561621621618686
3795,4708.54,3.8775355450264675
3796,4709.1,9.128067226890984
3797,4710.56,2.891708766713566
3798,4711.0,10.416731780614148
3799,4712.57,3.251283932501834
3800,4713.07,10.162941176473195
3801,4714.63,2.8907983661317935
3802,4715.07,10.3404878048807
3803,4716.63,3.250739219710964
3804,4717.16,7.502238720731396
3805,4718.58,2.549097668131567
3806,4719.0,8.942937479325174
3807,4720.5,3.095107296139938
3808,4721.02,8.638980973876844
3809,4722.5,3.15037705446321
3810,4723.04,8.556076509641493
3811,4724.53,3.460775588050413
3812,4725.13,8.135389841477167
3813,4726.52,2.95019138755581
3814,4727.03,9.312082262212915
3815,4728.63,2.407920883166303
3816,4729.06,8.808782112272556
3817,4730.59,2.8176623376597747
3818,4731.07,83.62864818024693
3819,4744.56,2.1797454685672424
3820,4745.12,6.538890589137396
3821,4746.81,0.5795038950377298
3822,4747.0,4.958052329649931
3823,4748.6,1.7665842277173034
3824,4749.13,4.869811320754106
3825,4750.58,2.4506802721088436
3826,4751.33,4.082754192476205
3827,4752.58,1.7913517688860219
3828,4753.12,4.616903831118426
3829,4754.5,2.4095547433114453
3830,4755.19,5.459240752758449
3831,4756.78,1.2346206574229104
3832,4757.15,4.551489361704075
3833,4758.51,1.8580988974264376
3834,4759.04,5.003046211882323
3835,4760.53,1.8939634595554986
3836,4761.12,4.517805082379336
3837,4762.58,1.8816556291393989
3838,4763.21,4.392465208748276
3839,4764.68,1.2549900596423644
3840,4765.1,5.014656609763934
3841,4766.78,1.2267330677286483
3842,4767.19,4.426160343210312
3843,4768.66,1.255876343372912
3844,4769.08,4.394403183024634
3845,4770.55,2.510422908657468
3846,4771.39,3.73541887592789
3847,4772.64,1.2542161016951323
3848,4773.06,4.392852598089242
3849,4774.53,1.8829832935564121
3850,4775.16,4.483293556085918
3851,4776.66,1.5306252228698751
3852,4777.21,3.4812738214652135
3853,4778.6,1.401599038171253
3854,4779.16,2.7798425433772476
3855,4780.27,2.7761663164206762
3856,4781.38,2.0763710081087376
3857,4782.21,1.3577688036344364
3858,4782.75,5.2885027687817185
3859,4784.81,0.6779616332636569
3860,4785.07,3.702245762712618
3861,4786.5,17.43002257336343
3862,4787.0,53.56702702702576
3863,4788.54,14.883393665160948
3864,4789.17,21.440887096773018
3865,4790.5,21.12994609165325
3866,4791.01,74.31553398058253
3867,4792.51,20.037872340416605
3868,4793.0,60.55511811023622
3869,4794.5,34.28378378378379
3870,4795.0,86.72727272727273
3871,4796.5,26.81578947368421
3872,4797.0,64.07906077348991
3873,4798.51,28.073529411764707
3874,4799.01,68.06804733727812
3875,4800.51,36.25766355141739
3876,4801.02,77.2479180887144
3877,4802.5,24.23417721518987
3878,4803.0,99.32608695652173
3879,4804.5,17.70183486238532
3880,4805.0,124.67904761907184
3881,4807.06,5.2993920972644375
3882,4808.56,1.7537612838515546
3883,4809.06,5.255633450175262
3884,4810.56,2.3480764735318815
