,BIT_DEPTH,RATE_OF_PENETRATION,HOOK_LOAD,DIFFERENTIAL_PRESSURE,WEIGHT_ON_BIT,DRILL_BIT_ID,DRILL_BIT_NAME,CPR,CPF,CPH,NEXT_DEPTH,NEXT_RATE,PREV_ID,DEPTH_INTERVAL,TIME_INTERVAL,cost
0,1252.71,438.0,57.6,700.0,47.32,1,Apollo,1000,4.0,2500,1253.16,479.6,,0.4500000000000455,0.20981239726027406,1526.3309931506853
1,1253.16,479.6,61.5,585.0,44.02,1,Apollo,1000,4.0,2500,1254.62,544.0,1.0,1.459999999999809,0.0030442035029187007,13.450508757295989
2,1254.62,544.0,57.0,645.0,46.67,1,Apollo,1000,4.0,2500,1255.11,545.2,1.0,0.4900000000000091,0.0009007352941176637,4.211838235294195
3,1255.11,545.2,61.4,631.0,46.91,1,Apollo,1000,4.0,2500,1257.11,427.9,1.0,2.0,0.003668378576669112,17.170946441672783
4,1257.11,427.9,56.1,471.0,50.45,1,Apollo,1000,4.0,2500,1258.72,590.9,1.0,1.6100000000001273,0.003762561346109202,15.846403365273513
5,1258.72,590.9,66.5,551.0,38.2,1,Apollo,1000,4.0,2500,1259.22,593.2,1.0,0.5,0.0008461668641056016,4.115417160264004
6,1259.22,593.2,65.9,589.0,39.23,1,Apollo,1000,4.0,2500,1260.5,611.3,1.0,1.2799999999999727,0.002157788267026252,10.514470667565522
7,1260.5,611.3,59.0,749.0,47.77,1,Apollo,1000,4.0,2500,1261.28,559.0,1.0,0.7799999999999727,0.0012759692458694139,6.309923114673426
8,1261.28,559.0,58.8,711.0,46.87,1,Apollo,1000,4.0,2500,1262.82,562.3,1.0,1.5399999999999636,0.0027549194991054807,13.047298747763556
9,1262.82,562.3,59.7,435.0,56.57,1,Apollo,1000,4.0,2500,1263.34,628.9,1.0,0.5199999999999818,0.0009247732527120432,4.391933131780036
10,1263.34,628.9,66.1,335.0,38.8,1,Apollo,1000,4.0,2500,1265.11,534.3,1.0,1.7699999999999818,0.0028144379074574364,14.116094768643517
11,1265.11,534.3,67.0,534.0,37.36,1,Apollo,1000,4.0,2500,1266.74,592.2,1.0,1.6300000000001091,0.003050720568968949,14.14680142242281
12,1266.74,592.2,81.5,457.0,22.76,1,Apollo,1000,4.0,2500,1267.03,608.0,1.0,0.2899999999999636,0.0004896994258695771,2.3842485646737974
13,1267.03,608.0,78.6,370.0,24.75,1,Apollo,1000,4.0,2500,1268.63,633.2,1.0,1.6000000000001364,0.0026315789473686456,12.97894736842216
14,1268.63,633.2,60.5,560.0,47.31,1,Apollo,1000,4.0,2500,1269.15,531.1,1.0,0.5199999999999818,0.0008212255211623212,4.13306380290573
15,1269.15,531.1,56.6,503.0,47.33,1,Apollo,1000,4.0,2500,1271.01,525.7,1.0,1.8599999999999,0.003502165317265863,16.195413293164258
16,1271.01,525.7,55.0,661.0,49.52,1,Apollo,1000,4.0,2500,1275.34,533.6,1.0,4.329999999999927,0.008236636865132065,37.911592162829876
17,1275.34,533.6,56.4,708.0,50.76,1,Apollo,1000,4.0,2500,1276.58,219.6,1.0,1.240000000000009,0.002323838080959537,10.769595202398879
18,1276.58,219.6,111.1,103.0,0.45,1,Apollo,1000,4.0,2500,1277.04,161.1,1.0,0.4600000000000364,0.002094717668488326,7.0767941712209605
19,1277.04,161.1,94.1,263.0,17.72,1,Apollo,1000,4.0,2500,1278.55,201.9,1.0,1.509999999999991,0.009373060211048983,29.47265052762242
20,1278.55,201.9,95.7,67.0,16.08,1,Apollo,1000,4.0,2500,1279.0,195.4,1.0,0.4500000000000455,0.0022288261515604037,7.372065378901191
21,1279.0,195.4,94.8,76.0,17.42,1,Apollo,1000,4.0,2500,1280.56,205.1,1.0,1.5599999999999454,0.007983623336744858,26.199058341861928
22,1280.56,205.1,97.4,40.0,14.35,1,Apollo,1000,4.0,2500,1281.01,199.0,1.0,0.4500000000000455,0.0021940516821065113,7.28512920526646
23,1281.01,199.0,98.2,118.0,16.03,1,Apollo,1000,4.0,2500,1282.51,97.0,1.0,1.5,0.007537688442211056,24.84422110552764
24,1282.51,97.0,105.2,64.0,6.16,1,Apollo,1000,4.0,2500,1283.06,156.0,1.0,0.5499999999999545,0.005670103092783036,16.375257731957408
25,1283.06,156.0,94.3,130.0,15.73,1,Apollo,1000,4.0,2500,1284.55,151.7,1.0,1.490000000000009,0.00955128205128211,29.83820512820531
26,1284.55,151.7,101.0,48.0,9.43,1,Apollo,1000,4.0,2500,1285.06,153.5,1.0,0.5099999999999909,0.003361898483849644,10.444746209624073
27,1285.06,153.5,99.7,1.0,12.07,1,Apollo,1000,4.0,2500,1286.54,213.2,1.0,1.4800000000000182,0.009641693811075037,30.024234527687664
28,1286.54,213.2,89.2,153.0,23.24,1,Apollo,1000,4.0,2500,1287.02,171.9,1.0,0.4800000000000182,0.0022514071294559954,7.548517823640061
29,1287.02,171.9,88.9,81.0,22.34,1,Apollo,1000,4.0,2500,1288.54,244.7,1.0,1.5199999999999818,0.008842350203606643,28.185875509016533
30,1288.54,244.7,89.4,206.0,22.18,1,Apollo,1000,4.0,2500,1289.07,270.7,1.0,0.5299999999999727,0.002165917449938589,7.534793624846363
31,1289.07,270.7,88.4,277.0,25.63,1,Apollo,1000,4.0,2500,1290.58,273.7,1.0,1.509999999999991,0.005578130772072372,19.985326930180893
32,1290.58,273.7,84.2,195.0,28.58,1,Apollo,1000,4.0,2500,1291.02,230.6,1.0,0.44000000000005457,0.0016075995615639552,5.778998903910106
33,1291.02,230.6,79.4,247.0,32.28,1,Apollo,1000,4.0,2500,1292.59,391.0,1.0,1.5699999999999363,0.006808326105810653,23.300815264526378
34,1292.59,391.0,77.6,298.0,33.32,1,Apollo,1000,4.0,2500,1293.02,341.8,1.0,0.43000000000006366,0.0010997442455244596,4.4693606138114035
35,1293.02,341.8,82.1,318.0,29.5,1,Apollo,1000,4.0,2500,1294.64,380.8,1.0,1.6200000000001182,0.004739613809245518,18.329034523114267
36,1294.64,380.8,76.9,412.0,33.15,1,Apollo,1000,4.0,2500,1295.11,395.3,1.0,0.4699999999997999,0.0012342436974784661,4.965609243695365
37,1295.11,395.3,80.6,262.0,30.65,1,Apollo,1000,4.0,2500,1296.53,325.5,1.0,1.4200000000000728,0.0035922084492792123,14.660521123198322
38,1296.53,325.5,80.2,271.0,30.43,1,Apollo,1000,4.0,2500,1297.08,325.1,1.0,0.5499999999999545,0.001689708141320905,6.42427035330208
39,1297.08,325.1,81.1,234.0,29.62,1,Apollo,1000,4.0,2500,1298.54,289.3,1.0,1.4600000000000364,0.004490925868963508,17.067314672408912
40,1298.54,289.3,73.7,210.0,35.03,1,Apollo,1000,4.0,2500,1299.08,217.2,1.0,0.5399999999999636,0.001866574490148509,6.826436225371127
41,1299.08,217.2,74.8,366.0,35.57,1,Apollo,1000,4.0,2500,1300.56,213.0,1.0,1.4800000000000182,0.006813996316758831,22.95499079189715
42,1300.56,213.0,73.1,431.0,43.48,1,Apollo,1000,4.0,2500,1301.01,205.5,1.0,0.4500000000000455,0.0021126760563382418,7.081690140845787
43,1301.01,205.5,99.3,79.0,10.78,1,Apollo,1000,4.0,2500,1302.77,373.3,1.0,1.759999999999991,0.008564476885644726,28.451192214111778
44,1302.77,373.3,72.4,384.0,37.3,1,Apollo,1000,4.0,2500,1303.36,362.1,1.0,0.5899999999999181,0.0015804982587728856,6.311245646931886
45,1303.36,362.1,93.7,298.0,16.85,1,Apollo,1000,4.0,2500,1304.63,543.9,1.0,1.2700000000002092,0.003507318420326454,13.848296050816971
46,1304.63,543.9,73.0,322.0,35.26,1,Apollo,1000,4.0,2500,1305.03,524.8,1.0,0.3999999999998636,0.0007354293068576275,3.438573267143523
47,1305.03,524.8,67.0,269.0,44.41,1,Apollo,1000,4.0,2500,1306.69,456.0,1.0,1.6600000000000819,0.0031631097560977173,14.547774390244621
48,1306.69,456.0,72.9,454.0,37.31,1,Apollo,1000,4.0,2500,1307.2,498.5,1.0,0.5099999999999909,0.0011184210526315591,4.836052631578862
49,1307.2,498.5,72.4,265.0,37.6,1,Apollo,1000,4.0,2500,1308.86,482.9,1.0,1.6599999999998545,0.0033299899699094373,14.964974924773012
50,1308.86,482.9,66.9,314.0,42.97,1,Apollo,1000,4.0,2500,1309.11,480.3,1.0,0.25,0.0005177055290950508,2.2942638227376273
51,1309.11,480.3,66.5,428.0,45.69,1,Apollo,1000,4.0,2500,1310.52,475.9,1.0,1.4100000000000819,0.0029356652092443927,12.979163023111308
52,1310.52,475.9,67.3,496.0,44.46,1,Apollo,1000,4.0,2500,1311.14,459.1,1.0,0.6200000000001182,0.0013027947047701582,5.736986761925868
53,1311.14,459.1,64.4,460.0,45.88,1,Apollo,1000,4.0,2500,1312.74,445.4,1.0,1.599999999999909,0.0034850795033759727,15.112698758439567
54,1312.74,445.4,66.9,373.0,42.38,1,Apollo,1000,4.0,2500,1313.43,487.3,1.0,0.6900000000000546,0.0015491692860351474,6.632923215088087
55,1313.43,487.3,69.6,338.0,42.33,1,Apollo,1000,4.0,2500,1314.65,439.3,1.0,1.2200000000000273,0.002503591216909557,11.138978042274001
56,1314.65,439.3,69.6,475.0,41.02,1,Apollo,1000,4.0,2500,1315.06,448.1,1.0,0.4099999999998545,0.0009333029820165136,3.973257455040702
57,1315.06,448.1,66.5,405.0,41.88,1,Apollo,1000,4.0,2500,1316.71,423.1,1.0,1.650000000000091,0.0036822137915645857,15.805534478911827
58,1316.71,423.1,72.5,470.0,38.07,1,Apollo,1000,4.0,2500,1317.12,485.7,1.0,0.4099999999998545,0.0009690380524695213,4.062595131173222
59,1317.12,485.7,68.6,304.0,40.38,1,Apollo,1000,4.0,2500,1318.57,385.3,1.0,1.4500000000000455,0.002985381922997829,13.263454807494753
60,1318.57,385.3,67.6,326.0,41.49,1,Apollo,1000,4.0,2500,1319.13,374.3,1.0,0.5600000000001728,0.00145341292499396,5.873532312485591
61,1319.13,374.3,68.7,379.0,40.96,1,Apollo,1000,4.0,2500,1320.7,511.7,1.0,1.5699999999999363,0.004194496393267262,16.7662409831679
62,1320.7,511.7,81.3,473.0,29.88,1,Apollo,1000,4.0,2500,1322.59,641.5,1.0,1.8899999999998727,0.00369357045143614,16.79392612858984
63,1322.59,641.5,70.7,427.0,37.75,1,Apollo,1000,4.0,2500,1323.11,583.7,1.0,0.5199999999999818,0.0008106001558846169,4.106500389711469
64,1323.11,583.7,73.6,422.0,35.04,1,Apollo,1000,4.0,2500,1324.74,582.7,1.0,1.6300000000001091,0.0027925304094570994,13.501326023643184
65,1324.74,582.7,88.4,457.0,18.02,1,Apollo,1000,4.0,2500,1325.01,728.6,1.0,0.2699999999999818,0.0004633602196670358,2.2384005491675167
66,1325.01,728.6,72.8,429.0,34.51,1,Apollo,1000,4.0,2500,1326.21,563.7,1.0,1.2000000000000455,0.001646994235520238,8.917485588800776
67,1326.21,563.7,73.4,453.0,36.2,1,Apollo,1000,4.0,2500,1328.66,443.7,1.0,2.4500000000000455,0.004346283484122841,20.665708710307285
68,1328.66,443.7,56.9,447.0,52.56,1,Apollo,1000,4.0,2500,1329.03,433.2,1.0,0.36999999999989086,0.0008338967771013993,3.5647419427530616
69,1329.03,433.2,59.9,440.0,50.19,1,Apollo,1000,4.0,2500,1330.21,520.2,1.0,1.1800000000000637,0.0027239150507850037,11.529787626962765
70,1330.21,520.2,85.7,331.0,22.39,1,Apollo,1000,4.0,2500,1330.75,543.6,1.0,0.5399999999999636,0.0010380622837369543,4.75515570934224
71,1330.75,543.6,80.5,356.0,26.88,1,Apollo,1000,4.0,2500,1332.67,599.6,1.0,1.9200000000000728,0.003532008830022209,16.510022075055815
72,1332.67,599.6,64.4,473.0,44.19,1,Apollo,1000,4.0,2500,1333.23,690.8,1.0,0.5599999999999454,0.000933955970647007,4.574889926617299
73,1333.23,690.8,61.5,537.0,47.88,1,Apollo,1000,4.0,2500,1334.67,640.3,1.0,1.4400000000000546,0.0020845396641575777,10.971349160394162
74,1334.67,640.3,60.3,440.0,49.66,1,Apollo,1000,4.0,2500,1336.55,692.3,1.0,1.8799999999998818,0.0029361236920191817,14.86030923004748
75,1336.55,692.3,62.8,456.0,46.34,1,Apollo,1000,4.0,2500,1337.13,652.4,1.0,0.5800000000001546,0.0008377870865234069,4.414467716309136
76,1337.13,652.4,62.5,472.0,45.37,1,Apollo,1000,4.0,2500,1338.53,679.6,1.0,1.3999999999998636,0.002145922746780907,10.964806866951722
77,1338.53,679.6,72.0,434.0,36.77,1,Apollo,1000,4.0,2500,1339.46,756.8,1.0,0.9300000000000637,0.0013684520306063326,7.141130076516086
78,1339.46,756.8,68.9,455.0,39.88,1,Apollo,1000,4.0,2500,1339.79,679.2,1.0,0.32999999999992724,0.0004360465116278109,2.4101162790692365
79,1339.79,679.2,69.7,368.0,38.36,1,Apollo,1000,4.0,2500,1340.75,687.5,1.0,0.9600000000000364,0.0014134275618375091,7.373568904593919
80,1340.75,687.5,61.7,529.0,43.06,1,Apollo,1000,4.0,2500,1342.56,637.7,1.0,1.8099999999999454,0.0026327272727271933,13.821818181817765
81,1342.56,637.7,68.0,597.0,48.99,1,Apollo,1000,4.0,2500,1343.21,672.4,1.0,0.650000000000091,0.0010192880664890872,5.148220166223082
82,1343.21,672.4,69.2,413.0,37.69,1,Apollo,1000,4.0,2500,1344.13,669.3,1.0,0.9200000000000728,0.0013682331945271754,7.10058298631823
83,1344.13,669.3,66.9,361.0,40.51,1,Apollo,1000,4.0,2500,1344.77,853.2,1.0,0.6399999999998727,0.0009562229194679107,4.950557298669267
84,1344.77,853.2,70.2,446.0,37.59,1,Apollo,1000,4.0,2500,1348.53,394.9,1.0,3.759999999999991,0.004406938584153763,26.05734646038437
85,1348.53,394.9,59.0,677.0,48.08,1,Apollo,1000,4.0,2500,1349.1,435.9,1.0,0.5699999999999363,0.0014434033932639563,5.888508483159637
86,1349.1,435.9,53.9,689.0,51.92,1,Apollo,1000,4.0,2500,1350.63,424.0,1.0,1.5300000000002,0.003509979353063088,14.894948382658521
87,1350.63,424.0,61.9,521.0,45.11,1,Apollo,1000,4.0,2500,1351.12,485.5,1.0,0.4899999999997817,0.0011556603773579758,4.849150943394067
88,1351.12,485.5,63.8,575.0,45.08,1,Apollo,1000,4.0,2500,1352.55,525.5,1.0,1.4300000000000637,0.00294541709577768,13.083542739444455
89,1352.55,525.5,64.6,754.0,45.0,1,Apollo,1000,4.0,2500,1353.08,621.8,1.0,0.5299999999999727,0.0010085632730732117,4.64140818268292
90,1353.08,621.8,64.5,659.0,49.77,1,Apollo,1000,4.0,2500,1356.62,538.4,1.0,3.5399999999999636,0.0056931489224830555,28.392872306207494
91,1356.62,538.4,56.8,612.0,48.83,1,Apollo,1000,4.0,2500,1358.88,529.2,1.0,2.2600000000002183,0.004197622585438742,19.53405646359773
92,1358.88,529.2,60.3,555.0,47.65,1,Apollo,1000,4.0,2500,1360.58,522.4,1.0,1.699999999999818,0.003212396069538583,14.83099017384573
93,1360.58,522.4,58.6,661.0,49.56,1,Apollo,1000,4.0,2500,1361.05,534.5,1.0,0.4700000000000273,0.000899693721286423,4.129234303216167
94,1361.05,534.5,58.4,561.0,47.8,1,Apollo,1000,4.0,2500,1362.64,575.6,1.0,1.5900000000001455,0.002974742750234136,13.796856875585922
95,1362.64,575.6,59.8,630.0,47.63,1,Apollo,1000,4.0,2500,1363.16,569.0,1.0,0.5199999999999818,0.00090340514246001,4.338512856149952
96,1363.16,569.0,57.0,698.0,48.14,1,Apollo,1000,4.0,2500,1364.79,582.3,1.0,1.6299999999998818,0.002864674868189599,13.681687170473523
97,1364.79,582.3,60.4,657.0,47.58,1,Apollo,1000,4.0,2500,1365.06,589.7,1.0,0.2699999999999818,0.0004636785162287169,2.2391962905717193
98,1365.06,589.7,60.4,656.0,46.37,1,Apollo,1000,4.0,2500,1366.66,603.0,1.0,1.6000000000001364,0.002713244022384494,13.18311005596178
99,1366.66,603.0,60.2,629.0,47.9,1,Apollo,1000,4.0,2500,1367.22,609.6,1.0,0.5599999999999454,0.0009286898839136739,4.561724709783967
100,1367.22,609.6,57.9,762.0,46.0,1,Apollo,1000,4.0,2500,1368.63,436.6,1.0,1.4100000000000819,0.002312992125984386,11.422480314961291
101,1368.63,436.6,60.4,798.0,45.97,1,Apollo,1000,4.0,2500,1369.19,522.3,1.0,0.5599999999999454,0.001282638570774039,5.446596426934879
102,1369.19,522.3,63.4,637.0,51.04,1,Apollo,1000,4.0,2500,1370.5,381.5,1.0,1.3099999999999454,0.0025081370859658158,11.510342714914321
103,1370.5,381.5,89.0,708.0,39.96,1,Apollo,1000,4.0,2500,1374.75,286.6,1.0,4.25,0.011140235910878113,44.85058977719528
104,1374.75,286.6,103.4,422.0,26.77,1,Apollo,1000,4.0,2500,1375.03,294.8,1.0,0.2799999999999727,0.00097697138869495,3.562428471737266
105,1375.03,294.8,105.2,218.0,9.65,1,Apollo,1000,4.0,2500,1376.67,334.1,1.0,1.6400000000001,0.005563093622795454,20.467734056989038
106,1376.67,334.1,74.7,496.0,39.41,1,Apollo,1000,4.0,2500,1377.04,122.0,1.0,0.36999999999989086,0.0011074528584252943,4.248632146062799
107,1377.04,122.0,74.3,378.0,40.16,1,Apollo,1000,4.0,2500,1378.59,107.7,1.0,1.5499999999999545,0.012704918032786512,37.9622950819661
108,1378.59,107.7,73.6,618.0,40.93,1,Apollo,1000,4.0,2500,1379.0,123.4,1.0,0.41000000000008185,0.0038068709377909182,11.157177344477622
109,1379.0,123.4,77.6,614.0,39.04,1,Apollo,1000,4.0,2500,1380.5,148.4,1.0,1.5,0.012155591572123177,36.38897893030794
110,1380.5,148.4,73.0,631.0,41.03,1,Apollo,1000,4.0,2500,1381.05,159.9,1.0,0.5499999999999545,0.0037061994609161354,11.465498652290156
111,1381.05,159.9,76.1,654.0,39.03,1,Apollo,1000,4.0,2500,1382.56,133.3,1.0,1.509999999999991,0.009443402126328899,29.64850531582221
112,1382.56,133.3,79.5,669.0,36.04,1,Apollo,1000,4.0,2500,1383.0,161.8,1.0,0.44000000000005457,0.0033008252063019845,10.01206301575518
113,1383.0,161.8,75.7,618.0,40.52,1,Apollo,1000,4.0,2500,1384.54,104.0,1.0,1.5399999999999636,0.0095179233621753,29.954808405438104
114,1384.54,104.0,93.5,215.0,20.63,1,Apollo,1000,4.0,2500,1385.01,75.4,1.0,0.4700000000000273,0.004519230769231031,13.178076923077688
115,1385.01,75.4,89.1,276.0,26.1,1,Apollo,1000,4.0,2500,1386.52,75.6,1.0,1.509999999999991,0.02002652519893887,56.10631299734713
116,1386.52,75.6,103.0,83.0,11.09,1,Apollo,1000,4.0,2500,1387.0,79.3,1.0,0.4800000000000182,0.0063492063492065895,17.793015873016547
117,1387.0,79.3,100.1,55.0,13.53,1,Apollo,1000,4.0,2500,1388.56,104.1,1.0,1.5599999999999454,0.019672131147540295,55.42032786885052
118,1388.56,104.1,99.6,124.0,16.01,1,Apollo,1000,4.0,2500,1389.03,105.2,1.0,0.4700000000000273,0.004514889529299014,13.167223823247644
119,1389.03,105.2,98.5,140.0,15.15,1,Apollo,1000,4.0,2500,1390.54,123.6,1.0,1.509999999999991,0.014353612167300293,41.924030418250695
120,1390.54,123.6,95.5,167.0,18.24,1,Apollo,1000,4.0,2500,1391.05,124.9,1.0,0.5099999999999909,0.004126213592232936,12.355533980582305
121,1391.05,124.9,95.0,158.0,18.79,1,Apollo,1000,4.0,2500,1392.5,146.4,1.0,1.4500000000000455,0.011609287429944319,34.82321857486098
122,1392.5,146.4,89.3,208.0,25.37,1,Apollo,1000,4.0,2500,1393.02,155.3,1.0,0.5199999999999818,0.0035519125683058867,10.959781420764644
123,1393.02,155.3,88.2,181.0,25.15,1,Apollo,1000,4.0,2500,1394.53,168.6,1.0,1.509999999999991,0.009723116548615523,30.347791371538772
124,1394.53,168.6,89.7,187.0,23.73,1,Apollo,1000,4.0,2500,1395.01,180.6,1.0,0.4800000000000182,0.0028469750889680793,9.037437722420272
125,1395.01,180.6,88.3,217.0,26.03,1,Apollo,1000,4.0,2500,1396.53,146.1,1.0,1.5199999999999818,0.00841638981173855,27.120974529346302
126,1396.53,146.1,92.0,197.0,21.17,1,Apollo,1000,4.0,2500,1397.04,144.3,1.0,0.5099999999999909,0.0034907597535933674,10.766899383983382
127,1397.04,144.3,87.2,252.0,26.57,1,Apollo,1000,4.0,2500,1398.51,181.0,1.0,1.4700000000000273,0.010187110187110375,31.347775467776046
128,1398.51,181.0,82.1,249.0,33.13,1,Apollo,1000,4.0,2500,1399.14,195.0,1.0,0.6300000000001091,0.003480662983426017,11.22165745856548
129,1399.14,195.0,81.1,301.0,32.19,1,Apollo,1000,4.0,2500,1400.5,183.0,1.0,1.3599999999999,0.006974358974358462,22.875897435895755
130,1400.5,183.0,71.5,396.0,42.06,1,Apollo,1000,4.0,2500,1401.03,174.9,1.0,0.5299999999999727,0.002896174863387829,9.360437158469463
131,1401.03,174.9,87.4,190.0,29.36,1,Apollo,1000,4.0,2500,1402.55,203.0,1.0,1.5199999999999818,0.008690680388793491,27.806700971983656
132,1402.55,203.0,78.7,328.0,36.05,1,Apollo,1000,4.0,2500,1403.03,193.1,1.0,0.4800000000000182,0.002364532019704523,7.83133004926138
133,1403.03,193.1,66.8,261.0,47.59,1,Apollo,1000,4.0,2500,1404.5,115.2,1.0,1.4700000000000273,0.0076126359399276405,24.91158984981921
134,1404.5,115.2,98.4,142.0,15.59,1,Apollo,1000,4.0,2500,1405.17,145.0,1.0,0.6700000000000728,0.005815972222222854,17.219930555557426
135,1405.17,145.0,95.5,224.0,16.39,1,Apollo,1000,4.0,2500,1406.51,313.1,1.0,1.3399999999999181,0.009241379310344263,28.46344827586033
136,1406.51,313.1,80.8,309.0,33.64,1,Apollo,1000,4.0,2500,1407.09,267.6,1.0,0.5799999999999272,0.0018524433088467813,6.951108272116662
137,1407.09,267.6,77.0,328.0,38.07,1,Apollo,1000,4.0,2500,1408.58,273.7,1.0,1.490000000000009,0.005568011958146521,19.880029895366338
138,1408.58,273.7,74.6,433.0,38.54,1,Apollo,1000,4.0,2500,1409.07,279.4,1.0,0.4900000000000091,0.001790281329923307,6.435703324808304
139,1409.07,279.4,72.8,447.0,39.84,1,Apollo,1000,4.0,2500,1410.59,268.0,1.0,1.5199999999999818,0.005440229062276241,19.68057265569053
140,1410.59,268.0,72.5,466.0,39.96,1,Apollo,1000,4.0,2500,1411.11,294.7,1.0,0.5199999999999818,0.0019402985074626186,6.930746268656474
141,1411.11,294.7,71.9,510.0,41.72,1,Apollo,1000,4.0,2500,1412.54,169.9,1.0,1.4300000000000637,0.0048523922633188455,17.850980658297367
142,1412.54,169.9,68.8,305.0,44.24,1,Apollo,1000,4.0,2500,1413.0,120.8,1.0,0.4600000000000364,0.002707474985285676,8.608687463214336
143,1413.0,120.8,76.5,352.0,37.23,1,Apollo,1000,4.0,2500,1414.52,114.8,1.0,1.5199999999999818,0.012582781456953492,37.53695364238366
144,1414.52,114.8,73.5,403.0,39.88,1,Apollo,1000,4.0,2500,1415.05,120.8,1.0,0.5299999999999727,0.00461672473867572,13.661811846689192
145,1415.05,120.8,71.8,480.0,40.43,1,Apollo,1000,4.0,2500,1416.54,148.9,1.0,1.490000000000009,0.012334437086092791,36.796092715232014
146,1416.54,148.9,71.4,447.0,38.6,1,Apollo,1000,4.0,2500,1417.05,145.8,1.0,0.5099999999999909,0.003425117528542585,10.602793821356425
147,1417.05,145.8,72.8,471.0,41.25,1,Apollo,1000,4.0,2500,1418.56,136.8,1.0,1.509999999999991,0.010356652949245478,31.931632373113658
148,1418.56,136.8,71.8,441.0,40.97,1,Apollo,1000,4.0,2500,1419.08,142.9,1.0,0.5199999999999818,0.0038011695906431417,11.582923976607782
149,1419.08,142.9,71.5,520.0,39.87,1,Apollo,1000,4.0,2500,1420.5,139.9,1.0,1.4200000000000728,0.00993701889433221,30.522547235830814
150,1420.5,139.9,72.5,478.0,39.77,1,Apollo,1000,4.0,2500,1421.04,135.8,1.0,0.5399999999999636,0.0038598999285201115,11.809749821300134
151,1421.04,135.8,73.5,445.0,40.25,1,Apollo,1000,4.0,2500,1422.51,134.2,1.0,1.4700000000000273,0.010824742268041436,32.9418556701037
152,1422.51,134.2,71.4,493.0,39.49,1,Apollo,1000,4.0,2500,1423.05,135.6,1.0,0.5399999999999636,0.004023845007451294,12.21961251862809
153,1423.05,135.6,72.6,434.0,39.68,1,Apollo,1000,4.0,2500,1424.58,143.3,1.0,1.5299999999999727,0.011283185840707763,34.327964601769295
154,1424.58,143.3,70.4,512.0,43.22,1,Apollo,1000,4.0,2500,1425.01,121.1,1.0,0.43000000000006366,0.003000697836706655,9.221744591766893
155,1425.01,121.1,71.7,374.0,39.74,1,Apollo,1000,4.0,2500,1426.53,153.0,1.0,1.5199999999999818,0.01255161023947136,37.45902559867833
156,1426.53,153.0,72.6,408.0,38.43,1,Apollo,1000,4.0,2500,1427.16,180.4,1.0,0.6300000000001091,0.004117647058824243,12.814117647061043
157,1427.16,180.4,94.4,79.0,16.6,1,Apollo,1000,4.0,2500,1428.62,197.2,1.0,1.459999999999809,0.008093126385808254,26.072815964519872
158,1428.62,197.2,84.5,289.0,26.16,1,Apollo,1000,4.0,2500,1429.05,192.2,1.0,0.43000000000006366,0.002180527383367463,7.171318458418912
159,1429.05,192.2,77.4,439.0,32.38,1,Apollo,1000,4.0,2500,1430.56,293.8,1.0,1.509999999999991,0.007856399583766863,25.68099895941712
160,1430.56,293.8,76.5,452.0,33.69,1,Apollo,1000,4.0,2500,1431.06,286.7,1.0,0.5,0.0017018379850238256,6.2545949625595645
161,1431.06,286.7,72.0,551.0,40.98,1,Apollo,1000,4.0,2500,1432.55,251.9,1.0,1.490000000000009,0.005197070108126994,18.95267527031752
162,1432.55,251.9,71.3,508.0,39.79,1,Apollo,1000,4.0,2500,1433.03,264.5,1.0,0.4800000000000182,0.0019055180627233748,6.68379515680851
163,1433.03,264.5,76.5,454.0,36.95,1,Apollo,1000,4.0,2500,1434.56,297.9,1.0,1.5299999999999727,0.005784499054820313,20.581247637050673
164,1434.56,297.9,90.7,354.0,20.7,1,Apollo,1000,4.0,2500,1435.09,311.0,1.0,0.5299999999999727,0.0017791205102382435,6.5678012755954995
165,1435.09,311.0,88.9,496.0,23.64,1,Apollo,1000,4.0,2500,1436.68,300.0,1.0,1.5900000000001455,0.005112540192926513,19.141350482316867
166,1436.68,300.0,70.3,581.0,40.71,1,Apollo,1000,4.0,2500,1437.05,287.5,1.0,0.36999999999989086,0.0012333333333329694,4.563333333331987
167,1437.05,287.5,67.1,648.0,43.31,1,Apollo,1000,4.0,2500,1438.61,303.4,1.0,1.5599999999999454,0.00542608695652155,19.805217391303657
168,1438.61,303.4,67.9,589.0,44.24,1,Apollo,1000,4.0,2500,1439.06,307.6,1.0,0.4500000000000455,0.0014831905075809015,5.507976268952436
169,1439.06,307.6,74.7,648.0,37.12,1,Apollo,1000,4.0,2500,1440.69,414.6,1.0,1.6300000000001091,0.00529908972691843,19.767724317296512
170,1440.69,414.6,83.2,599.0,28.96,1,Apollo,1000,4.0,2500,1441.1,432.7,1.0,0.4099999999998545,0.0009889049686441255,4.112262421609731
171,1441.1,432.7,79.7,560.0,31.34,1,Apollo,1000,4.0,2500,1442.69,506.3,1.0,1.5900000000001455,0.003674601340420951,15.546503351052959
172,1442.69,506.3,73.1,592.0,38.15,1,Apollo,1000,4.0,2500,1443.46,522.8,1.0,0.7699999999999818,0.0015208374481532328,6.882093620383009
173,1443.46,522.8,68.9,678.0,40.72,1,Apollo,1000,4.0,2500,1444.86,473.9,1.0,1.3999999999998636,0.0026778882938023408,12.294720734505306
174,1444.86,473.9,68.7,571.0,42.07,1,Apollo,1000,4.0,2500,1445.37,578.4,1.0,0.5099999999999909,0.001076176408524986,4.730441021312428
175,1445.37,578.4,69.5,523.0,43.66,1,Apollo,1000,4.0,2500,1446.62,529.2,1.0,1.25,0.002161134163208852,10.402835408022131
176,1446.62,529.2,68.0,565.0,42.01,1,Apollo,1000,4.0,2500,1447.45,659.1,1.0,0.8300000000001546,0.0015684051398340035,7.241012849585627
177,1447.45,659.1,69.1,467.0,40.34,1,Apollo,1000,4.0,2500,1448.26,581.4,1.0,0.8099999999999454,0.0012289485662265898,6.312371415566256
178,1448.26,581.4,68.9,612.0,44.78,1,Apollo,1000,4.0,2500,1449.02,620.6,1.0,0.7599999999999909,0.0013071895424836446,6.307973856209076
179,1449.02,620.6,66.4,505.0,43.43,1,Apollo,1000,4.0,2500,1450.57,554.2,1.0,1.5499999999999545,0.002497582984208757,12.44395746052171
180,1450.57,554.2,66.0,562.0,45.74,1,Apollo,1000,4.0,2500,1451.03,585.2,1.0,0.4600000000000364,0.0008300252616384633,3.9150631540963037
181,1451.03,585.2,65.5,565.0,46.1,1,Apollo,1000,4.0,2500,1452.71,517.7,1.0,1.6800000000000637,0.002870813397129295,13.897033492823493
182,1452.71,517.7,63.4,599.0,44.58,1,Apollo,1000,4.0,2500,1453.24,575.0,1.0,0.5299999999999727,0.0010237589337453595,4.67939733436329
183,1453.24,575.0,75.2,451.0,37.02,1,Apollo,1000,4.0,2500,1454.64,629.8,1.0,1.400000000000091,0.0024347826086958107,11.68695652173989
184,1454.64,629.8,61.2,952.0,49.83,1,Apollo,1000,4.0,2500,1455.04,341.6,1.0,0.3999999999998636,0.0006351222610350328,3.187805652587036
185,1455.04,341.6,54.3,693.0,53.38,1,Apollo,1000,4.0,2500,1456.54,370.2,1.0,1.5,0.004391100702576112,16.97775175644028
186,1456.54,370.2,64.5,656.0,44.97,1,Apollo,1000,4.0,2500,1457.19,352.4,1.0,0.650000000000091,0.001755807671529149,6.989519178823236
187,1457.19,352.4,67.5,653.0,44.51,1,Apollo,1000,4.0,2500,1458.62,365.8,1.0,1.4299999999998363,0.004057888762769116,15.864721906922135
188,1458.62,365.8,65.4,583.0,43.78,1,Apollo,1000,4.0,2500,1459.17,400.7,1.0,0.5500000000001819,0.0015035538545658336,5.958884636415311
189,1459.17,400.7,64.9,588.0,43.93,1,Apollo,1000,4.0,2500,1460.57,382.0,1.0,1.3999999999998636,0.0034938857000246164,14.334714250060996
190,1460.57,382.0,64.1,676.0,45.9,1,Apollo,1000,4.0,2500,1461.05,374.5,1.0,0.4800000000000182,0.0012565445026178487,5.061361256544695
191,1461.05,374.5,62.7,630.0,45.91,1,Apollo,1000,4.0,2500,1462.57,180.4,1.0,1.5199999999999818,0.004058744993324384,16.22686248331089
192,1462.57,180.4,67.9,537.0,40.7,1,Apollo,1000,4.0,2500,1463.07,171.2,1.0,0.5,0.0027716186252771616,8.929046563192905
193,1463.07,171.2,80.6,422.0,26.81,1,Apollo,1000,4.0,2500,1464.63,351.1,1.0,1.5600000000001728,0.009112149532711292,29.02037383177892
194,1464.63,351.1,72.0,537.0,36.01,1,Apollo,1000,4.0,2500,1465.13,383.7,1.0,0.5,0.0014240956992309882,5.560239248077471
195,1465.13,383.7,71.9,579.0,40.58,1,Apollo,1000,4.0,2500,1466.53,893.8,1.0,1.3999999999998636,0.0036486838676045444,14.721709669010815
196,1466.53,893.8,82.7,209.0,30.78,1,Apollo,1000,4.0,2500,1467.0,365.9,1.0,0.4700000000000273,0.0005258447079883948,3.1946117699710963
197,1467.0,365.9,93.8,376.0,24.8,1,Apollo,1000,4.0,2500,1468.66,409.2,1.0,1.6600000000000819,0.004536758677234441,17.981896693086433
198,1468.66,409.2,90.6,417.0,27.33,1,Apollo,1000,4.0,2500,1469.03,412.6,1.0,0.36999999999989086,0.0009042033235578956,3.7405083088943023
199,1469.03,412.6,89.3,434.0,25.28,1,Apollo,1000,4.0,2500,1470.51,512.6,1.0,1.4800000000000182,0.0035870092098885557,14.887523024721462
200,1470.51,512.6,77.4,528.0,36.48,1,Apollo,1000,4.0,2500,1471.2,537.6,1.0,0.6900000000000546,0.0013460788138900791,6.125197034725416
201,1471.2,537.6,80.5,481.0,35.95,1,Apollo,1000,4.0,2500,1472.87,501.0,1.0,1.6699999999998454,0.003106398809523522,14.445997023808186
202,1472.87,501.0,72.6,636.0,43.4,1,Apollo,1000,4.0,2500,1473.1,487.6,1.0,0.2300000000000182,0.0004590818363273816,2.0677045908185265
203,1473.1,487.6,70.7,611.0,44.36,1,Apollo,1000,4.0,2500,1474.66,489.8,1.0,1.5600000000001728,0.003199343724364587,14.23835931091216
204,1474.66,489.8,75.1,384.0,39.97,1,Apollo,1000,4.0,2500,1475.25,581.3,1.0,0.5899999999999181,0.0012045732952223728,5.371433238055605
205,1475.25,581.3,67.3,422.0,49.73,1,Apollo,1000,4.0,2500,1476.57,416.8,1.0,1.3199999999999363,0.0022707724066745854,10.956931016686209
206,1476.57,416.8,73.1,369.0,41.77,1,Apollo,1000,4.0,2500,1477.16,419.1,1.0,0.5900000000001455,0.0014155470249523645,5.8988675623814935
207,1477.16,419.1,66.7,460.0,48.14,1,Apollo,1000,4.0,2500,1478.67,375.2,1.0,1.509999999999991,0.0036029587210689358,15.047396802672303
208,1478.67,375.2,72.6,599.0,44.25,1,Apollo,1000,4.0,2500,1479.02,380.8,1.0,0.34999999999990905,0.00093283582089528,3.732089552237836
209,1479.02,380.8,69.7,543.0,45.9,1,Apollo,1000,4.0,2500,1480.85,401.8,1.0,1.8299999999999272,0.004805672268907372,19.33418067226814
210,1480.85,401.8,70.6,547.0,44.03,1,Apollo,1000,4.0,2500,1481.11,376.4,1.0,0.2599999999999909,0.0006470881035340739,2.6577202588351483
211,1481.11,376.4,62.6,614.0,53.64,1,Apollo,1000,4.0,2500,1482.53,458.7,1.0,1.4200000000000728,0.003772582359192542,15.111455897981646
212,1482.53,458.7,67.7,405.0,46.85,1,Apollo,1000,4.0,2500,1483.18,367.0,1.0,0.650000000000091,0.001417048179638306,6.142620449096128
213,1483.18,367.0,70.9,392.0,43.88,1,Apollo,1000,4.0,2500,1484.52,202.5,1.0,1.3399999999999181,0.003651226158037924,14.488065395094482
214,1484.52,202.5,98.0,263.0,17.23,1,Apollo,1000,4.0,2500,1485.12,269.3,1.0,0.599999999999909,0.002962962962962514,9.807407407405922
215,1485.12,269.3,98.1,196.0,16.87,1,Apollo,1000,4.0,2500,1486.72,249.7,1.0,1.6000000000001364,0.005941329372447591,21.253323431119526
216,1486.72,249.7,97.0,340.0,18.4,1,Apollo,1000,4.0,2500,1487.06,242.1,1.0,0.33999999999991815,0.0013616339607525757,4.764084901881112
217,1487.06,242.1,99.0,241.0,15.62,1,Apollo,1000,4.0,2500,1488.51,214.4,1.0,1.4500000000000455,0.005989260636100973,20.773151590252613
218,1488.51,214.4,92.2,303.0,21.14,1,Apollo,1000,4.0,2500,1489.12,199.4,1.0,0.6099999999999,0.0028451492537308765,9.552873134326791
219,1489.12,199.4,96.1,299.0,19.16,1,Apollo,1000,4.0,2500,1490.54,243.5,1.0,1.4200000000000728,0.007121364092277194,23.483410230693277
220,1490.54,243.5,89.3,430.0,24.99,1,Apollo,1000,4.0,2500,1491.1,252.8,1.0,0.5599999999999454,0.002299794661190741,7.989486652976634
221,1491.1,252.8,92.7,325.0,22.23,1,Apollo,1000,4.0,2500,1492.54,214.4,1.0,1.4400000000000546,0.005696202531645785,20.00050632911468
222,1492.54,214.4,91.3,375.0,23.97,1,Apollo,1000,4.0,2500,1493.25,231.8,1.0,0.7100000000000364,0.003311567164179274,11.11891791044833
223,1493.25,231.8,92.2,269.0,21.09,1,Apollo,1000,4.0,2500,1494.61,271.6,1.0,1.3599999999999,0.005867126833476703,20.10781708369136
224,1494.61,271.6,86.0,469.0,29.11,1,Apollo,1000,4.0,2500,1495.04,287.1,1.0,0.43000000000006366,0.001583210603829395,5.678026509573742
225,1495.04,287.1,95.1,298.0,21.12,1,Apollo,1000,4.0,2500,1496.62,354.6,1.0,1.5799999999999272,0.0055033089515845604,20.07827237896111
226,1496.62,354.6,86.2,476.0,28.6,1,Apollo,1000,4.0,2500,1497.09,356.1,1.0,0.4700000000000273,0.0013254371122392195,5.193592780598157
227,1497.09,356.1,86.6,416.0,29.95,1,Apollo,1000,4.0,2500,1498.57,422.8,1.0,1.4800000000000182,0.004156135916877333,16.310339792193403
228,1498.57,422.8,76.0,448.0,37.34,1,Apollo,1000,4.0,2500,1499.1,415.6,1.0,0.5299999999999727,0.0012535477767265202,5.253869441816191
229,1499.1,415.6,72.4,591.0,43.86,1,Apollo,1000,4.0,2500,1500.57,354.1,1.0,1.4700000000000273,0.0035370548604427986,14.722637151107106
230,1500.57,354.1,71.2,582.0,42.15,1,Apollo,1000,4.0,2500,1501.03,348.8,1.0,0.4600000000000364,0.0012990680598701958,5.087670149675635
231,1501.03,348.8,71.7,555.0,42.28,1,Apollo,1000,4.0,2500,1502.61,309.3,1.0,1.5799999999999272,0.004529816513761259,17.644541284402855
232,1502.61,309.3,66.1,524.0,48.19,1,Apollo,1000,4.0,2500,1503.19,239.7,1.0,0.5800000000001546,0.0018752020691889901,7.008005172973093
233,1503.19,239.7,68.8,388.0,45.06,1,Apollo,1000,4.0,2500,1504.72,272.3,1.0,1.5299999999999727,0.006382978723404142,22.077446808510246
234,1504.72,272.3,70.0,422.0,44.12,1,Apollo,1000,4.0,2500,1505.19,344.4,1.0,0.4700000000000273,0.0017260374586853735,6.195093646713543
235,1505.19,344.4,71.6,517.0,41.9,1,Apollo,1000,4.0,2500,1506.82,364.1,1.0,1.6299999999998818,0.004732868757258658,18.35217189314617
236,1506.82,364.1,69.1,538.0,43.59,1,Apollo,1000,4.0,2500,1507.09,347.0,1.0,0.2699999999999818,0.0007415545179895133,2.9338862949737106
237,1507.09,347.0,67.4,495.0,46.47,1,Apollo,1000,4.0,2500,1508.63,352.8,1.0,1.540000000000191,0.004438040345821876,17.255100864555455
238,1508.63,352.8,86.9,224.0,26.8,1,Apollo,1000,4.0,2500,1509.22,417.0,1.0,0.5899999999999181,0.0016723356009067975,6.540839002266666
239,1509.22,417.0,79.5,400.0,33.85,1,Apollo,1000,4.0,2500,1510.51,185.9,1.0,1.2899999999999636,0.0030935251798560283,12.893812949639926
240,1510.51,185.9,75.6,436.0,36.79,1,Apollo,1000,4.0,2500,1511.0,187.3,1.0,0.4900000000000091,0.0026358257127488383,8.549564281872133
241,1511.0,187.3,64.1,590.0,50.03,1,Apollo,1000,4.0,2500,1512.76,102.8,1.0,1.759999999999991,0.009396689802455904,30.53172450613972
242,1512.76,102.8,94.4,515.0,20.96,1,Apollo,1000,4.0,2500,1513.11,398.5,1.0,0.34999999999990905,0.003404669260699505,9.9116731517484
243,1513.11,398.5,94.6,372.0,19.41,1,Apollo,1000,4.0,2500,1514.53,400.7,1.0,1.4200000000000728,0.0035633626097868825,14.588406524467498
244,1514.53,400.7,90.6,457.0,21.46,1,Apollo,1000,4.0,2500,1515.07,432.8,1.0,0.5399999999999636,0.0013476416271523924,5.529104067880835
245,1515.07,432.8,94.9,412.0,17.28,1,Apollo,1000,4.0,2500,1516.75,422.7,1.0,1.6800000000000637,0.0038817005545287975,16.424251386322247
246,1516.75,422.7,98.3,377.0,15.49,1,Apollo,1000,4.0,2500,1517.11,432.1,1.0,0.35999999999989996,0.0008516678495384432,3.569169623845708
247,1517.11,432.1,99.3,352.0,11.23,1,Apollo,1000,4.0,2500,1518.81,526.8,1.0,1.7000000000000455,0.003934274473501609,16.635686183754203
248,1518.81,526.8,83.5,505.0,30.78,1,Apollo,1000,4.0,2500,1519.05,539.4,1.0,0.2400000000000091,0.0004555808656036619,2.098952164009191
249,1519.05,539.4,82.4,467.0,34.12,1,Apollo,1000,4.0,2500,1520.0,529.8,1.0,0.9500000000000455,0.0017612161661105775,8.203040415276625
250,1520.0,529.8,73.3,575.0,41.26,1,Apollo,1000,4.0,2500,1520.76,540.1,1.0,0.7599999999999909,0.0014345035862589487,6.626258965647335
251,1520.76,540.1,71.3,541.0,39.6,1,Apollo,1000,4.0,2500,1522.71,339.3,1.0,1.9500000000000455,0.0036104425106462607,16.826106276615832
252,1522.71,339.3,69.4,606.0,42.06,1,Apollo,1000,4.0,2500,1523.04,368.1,1.0,0.32999999999992724,0.000972590627762827,3.7514765694067767
253,1523.04,368.1,64.7,586.0,50.81,1,Apollo,1000,4.0,2500,1524.62,408.3,1.0,1.5799999999999272,0.0042923118717737765,17.05077967943415
254,1524.62,408.3,65.0,813.0,46.96,1,Apollo,1000,4.0,2500,1525.11,410.0,1.0,0.4900000000000091,0.0012000979671810165,4.960244917952577
255,1525.11,410.0,66.8,753.0,45.78,1,Apollo,1000,4.0,2500,1526.52,394.8,1.0,1.4100000000000819,0.003439024390244102,14.237560975610583
256,1526.52,394.8,65.2,763.0,44.49,1,Apollo,1000,4.0,2500,1527.02,390.4,1.0,0.5,0.0012664640324214793,5.1661600810536985
257,1527.02,390.4,66.2,821.0,47.06,1,Apollo,1000,4.0,2500,1528.61,392.4,1.0,1.5899999999999181,0.004072745901639135,16.54186475409751
258,1528.61,392.4,72.0,812.0,40.67,1,Apollo,1000,4.0,2500,1529.01,451.9,1.0,0.40000000000009095,0.001019367991845288,4.148419979613584
259,1529.01,451.9,67.6,707.0,44.6,1,Apollo,1000,4.0,2500,1530.56,444.6,1.0,1.5499999999999545,0.003429962381057656,14.774905952643957
260,1530.56,444.6,65.7,794.0,45.14,1,Apollo,1000,4.0,2500,1531.11,445.4,1.0,0.5499999999999545,0.0012370670265406084,5.292667566351339
261,1531.11,445.4,67.2,812.0,44.76,1,Apollo,1000,4.0,2500,1532.65,405.8,1.0,1.540000000000191,0.003457566232600339,14.803915581501611
262,1532.65,405.8,66.5,710.0,47.48,1,Apollo,1000,4.0,2500,1533.12,368.1,1.0,0.4699999999997999,0.001158206012813701,4.775515032033452
263,1533.12,368.1,67.3,747.0,45.23,1,Apollo,1000,4.0,2500,1534.54,329.4,1.0,1.4200000000000728,0.003857647378429972,15.324118446075222
264,1534.54,329.4,63.4,718.0,47.85,1,Apollo,1000,4.0,2500,1535.11,242.6,1.0,0.5699999999999363,0.0017304189435335044,6.606047358833506
265,1535.11,242.6,64.1,701.0,47.85,1,Apollo,1000,4.0,2500,1536.6,315.6,1.0,1.490000000000009,0.006141797197032189,21.31449299258051
266,1536.6,315.6,69.5,581.0,44.54,1,Apollo,1000,4.0,2500,1537.06,290.7,1.0,0.4600000000000364,0.0014575411913816108,5.4838529784541725
267,1537.06,290.7,68.2,645.0,43.2,1,Apollo,1000,4.0,2500,1538.57,315.5,1.0,1.509999999999991,0.005194358445132408,19.025896112830985
268,1538.57,315.5,64.8,596.0,45.83,1,Apollo,1000,4.0,2500,1539.12,312.8,1.0,0.5499999999999545,0.0017432646592708543,6.558161648176954
269,1539.12,312.8,69.5,653.0,43.67,1,Apollo,1000,4.0,2500,1540.66,335.4,1.0,1.540000000000191,0.004923273657289613,18.468184143224796
270,1540.66,335.4,66.1,703.0,44.24,1,Apollo,1000,4.0,2500,1541.14,352.4,1.0,0.4800000000000182,0.0014311270125224155,5.4978175313061115
271,1541.14,352.4,67.8,690.0,44.76,1,Apollo,1000,4.0,2500,1542.74,366.0,1.0,1.599999999999909,0.004540295119182489,17.750737797955857
272,1542.74,366.0,66.0,690.0,45.21,1,Apollo,1000,4.0,2500,1543.2,349.9,1.0,0.4600000000000364,0.0012568306010929957,4.982076502732635
273,1543.2,349.9,65.6,632.0,45.22,1,Apollo,1000,4.0,2500,1544.6,354.2,1.0,1.3999999999998636,0.004001143183766401,15.602857959415458
274,1544.6,354.2,67.8,599.0,45.9,1,Apollo,1000,4.0,2500,1545.05,354.9,1.0,0.4500000000000455,0.001270468661773138,4.976171654433028
275,1545.05,354.9,65.8,594.0,45.29,1,Apollo,1000,4.0,2500,1546.54,353.2,1.0,1.490000000000009,0.004198365736827301,16.45591434206829
276,1546.54,353.2,67.0,772.0,43.11,1,Apollo,1000,4.0,2500,1547.04,373.7,1.0,0.5,0.0014156285390713478,5.5390713476783695
277,1547.04,373.7,65.4,678.0,45.0,1,Apollo,1000,4.0,2500,1548.5,356.5,1.0,1.4600000000000364,0.003906877174204004,15.607192935510156
278,1548.5,356.5,66.3,730.0,44.56,1,Apollo,1000,4.0,2500,1549.16,371.1,1.0,0.6600000000000819,0.0018513323983172002,7.2683309957933275
279,1549.16,371.1,67.8,821.0,43.59,1,Apollo,1000,4.0,2500,1550.64,366.7,1.0,1.4800000000000182,0.003988143357585605,15.890358393964085
280,1550.64,366.7,66.9,654.0,44.25,1,Apollo,1000,4.0,2500,1551.31,384.6,1.0,0.6699999999998454,0.0018271066266698811,7.247766566674084
281,1551.31,384.6,68.2,732.0,43.79,1,Apollo,1000,4.0,2500,1552.66,363.5,1.0,1.3500000000001364,0.0035101404056165795,14.175351014041995
282,1552.66,363.5,68.8,681.0,42.82,1,Apollo,1000,4.0,2500,1553.01,383.0,1.0,0.34999999999990905,0.0009628610729020881,3.8071526822548565
283,1553.01,383.0,63.8,659.0,46.41,1,Apollo,1000,4.0,2500,1554.51,381.5,1.0,1.5,0.0039164490861618795,15.791122715404699
284,1554.51,381.5,65.6,731.0,44.74,1,Apollo,1000,4.0,2500,1555.0,388.3,1.0,0.4900000000000091,0.0012844036697247944,5.171009174312022
285,1555.0,388.3,64.4,705.0,44.89,1,Apollo,1000,4.0,2500,1556.55,389.3,1.0,1.5499999999999545,0.003991758949265915,16.179397373164605
286,1556.55,389.3,66.3,746.0,44.13,1,Apollo,1000,4.0,2500,1557.07,363.6,1.0,0.5199999999999818,0.0013357307988697195,5.419326997174226
287,1557.07,363.6,67.2,762.0,44.79,1,Apollo,1000,4.0,2500,1558.7,349.4,1.0,1.6300000000001091,0.0044829482948297835,17.727370737074896
288,1558.7,349.4,70.1,727.0,43.03,1,Apollo,1000,4.0,2500,1559.23,376.3,1.0,0.5299999999999727,0.0015168860904406778,5.912215226101585
289,1559.23,376.3,68.8,704.0,43.7,1,Apollo,1000,4.0,2500,1560.55,315.1,1.0,1.3199999999999363,0.0035078394897686323,14.049598724421326
290,1560.55,315.1,102.5,374.0,18.32,1,Apollo,1000,4.0,2500,1561.03,287.9,1.0,0.4800000000000182,0.0015233259282767951,5.728314820692061
291,1561.03,287.9,111.6,104.0,4.2,1,Apollo,1000,4.0,2500,1562.68,405.6,1.0,1.650000000000091,0.00573115665161546,20.927891629039014
292,1562.68,405.6,92.2,393.0,25.7,1,Apollo,1000,4.0,2500,1564.65,263.6,1.0,1.9700000000000273,0.004857001972386654,20.022504930966747
293,1564.65,263.6,65.5,415.0,51.14,1,Apollo,1000,4.0,2500,1565.0,217.5,1.0,0.34999999999990905,0.0013277693474958612,4.719423368739289
294,1565.0,217.5,74.3,487.0,41.2,1,Apollo,1000,4.0,2500,1566.54,152.8,1.0,1.5399999999999636,0.007080459770114776,23.861149425286794
295,1566.54,152.8,69.2,338.0,45.69,1,Apollo,1000,4.0,2500,1567.06,169.5,1.0,0.5199999999999818,0.003403141361256425,10.58785340314099
296,1567.06,169.5,71.6,506.0,46.28,1,Apollo,1000,4.0,2500,1568.5,189.7,1.0,1.4400000000000546,0.008495575221239261,26.99893805309837
297,1568.5,189.7,62.7,469.0,53.46,1,Apollo,1000,4.0,2500,1569.13,165.1,1.0,0.6300000000001091,0.003321033210332679,10.822583025832134
298,1569.13,165.1,62.9,485.0,52.72,1,Apollo,1000,4.0,2500,1570.54,139.9,1.0,1.4099999999998545,0.008540278619017896,26.990696547544157
299,1570.54,139.9,64.0,465.0,51.29,1,Apollo,1000,4.0,2500,1571.06,143.0,1.0,0.5199999999999818,0.0037169406719083755,11.372351679770865
300,1571.06,143.0,68.0,526.0,50.35,1,Apollo,1000,4.0,2500,1572.54,148.1,1.0,1.4800000000000182,0.010349650349650477,31.794125874126266
301,1572.54,148.1,65.8,429.0,49.83,1,Apollo,1000,4.0,2500,1573.01,140.6,1.0,0.4700000000000273,0.0031735313977044382,9.813828494261205
302,1573.01,140.6,68.3,456.0,48.89,1,Apollo,1000,4.0,2500,1574.53,216.1,1.0,1.5199999999999818,0.010810810810810681,33.10702702702663
303,1574.53,216.1,61.4,564.0,54.53,1,Apollo,1000,4.0,2500,1575.05,170.4,1.0,0.5199999999999818,0.0024062933826931136,8.095733456732711
304,1575.05,170.4,64.7,519.0,51.5,1,Apollo,1000,4.0,2500,1576.51,140.2,1.0,1.4600000000000364,0.008568075117371106,27.26018779342791
305,1576.51,140.2,66.6,427.0,50.12,1,Apollo,1000,4.0,2500,1577.01,140.1,1.0,0.5,0.003566333808844508,10.91583452211127
306,1577.01,140.1,67.2,491.0,48.94,1,Apollo,1000,4.0,2500,1578.55,155.1,1.0,1.5399999999999636,0.01099214846538161,33.64037116345388
307,1578.55,155.1,65.0,618.0,51.1,1,Apollo,1000,4.0,2500,1579.1,177.5,1.0,0.5499999999999545,0.0035460992907798486,11.06524822694944
308,1579.1,177.5,78.6,381.0,38.52,1,Apollo,1000,4.0,2500,1580.62,164.2,1.0,1.5199999999999818,0.008563380281690038,27.488450704225023
309,1580.62,164.2,65.7,601.0,50.4,1,Apollo,1000,4.0,2500,1581.1,149.2,1.0,0.4800000000000182,0.002923264311814971,9.2281607795375
310,1581.1,149.2,68.4,498.0,49.23,1,Apollo,1000,4.0,2500,1582.53,164.4,1.0,1.4300000000000637,0.009584450402145199,29.68112600536325
311,1582.53,164.4,71.8,398.0,43.69,1,Apollo,1000,4.0,2500,1583.01,216.3,1.0,0.4800000000000182,0.0029197080291971907,9.21927007299305
312,1583.01,216.3,60.7,381.0,53.95,1,Apollo,1000,4.0,2500,1583.5,285.7,1.0,0.4900000000000091,0.0022653721682848317,7.623430420712116
313,1583.5,285.7,65.7,409.0,49.39,1,Apollo,1000,4.0,2500,1585.06,277.5,1.0,1.5599999999999454,0.005460273013650492,19.890682534126015
314,1585.06,277.5,67.6,500.0,46.04,1,Apollo,1000,4.0,2500,1586.59,335.5,1.0,1.5299999999999727,0.005513513513513415,19.903783783783428
315,1586.59,335.5,69.7,527.0,46.43,1,Apollo,1000,4.0,2500,1587.01,328.1,1.0,0.42000000000007276,0.0012518628912073703,4.809657228018716
316,1587.01,328.1,66.8,455.0,49.4,1,Apollo,1000,4.0,2500,1588.54,171.3,1.0,1.5299999999999727,0.004663212435233077,17.778031088082585
317,1588.54,171.3,68.2,394.0,44.73,1,Apollo,1000,4.0,2500,1589.09,236.5,1.0,0.5499999999999545,0.003210741389375099,10.226853473437565
318,1589.09,236.5,71.3,498.0,45.19,1,Apollo,1000,4.0,2500,1590.61,346.6,1.0,1.5199999999999818,0.006427061310782163,22.147653276955335
319,1590.61,346.6,95.2,228.0,25.82,1,Apollo,1000,4.0,2500,1591.08,340.0,1.0,0.4700000000000273,0.001356030005770419,5.270075014426157
320,1591.08,340.0,78.5,365.0,33.54,1,Apollo,1000,4.0,2500,1592.64,330.3,1.0,1.5600000000001728,0.004588235294118156,17.71058823529608
321,1592.64,330.3,68.8,534.0,45.89,1,Apollo,1000,4.0,2500,1593.09,336.1,1.0,0.4499999999998181,0.001362397820162937,5.205994550406615
322,1593.09,336.1,64.3,544.0,51.25,1,Apollo,1000,4.0,2500,1594.64,392.2,1.0,1.550000000000182,0.004611722701577453,17.729306753944357
323,1594.64,392.2,62.8,376.0,53.32,1,Apollo,1000,4.0,2500,1595.06,328.8,1.0,0.4199999999998454,0.0010708822029572805,4.3572055073925835
324,1595.06,328.8,67.7,507.0,46.03,1,Apollo,1000,4.0,2500,1596.5,354.2,1.0,1.4400000000000546,0.004379562043795786,16.708905109489685
325,1596.5,354.2,65.0,457.0,50.27,1,Apollo,1000,4.0,2500,1597.06,316.3,1.0,0.5599999999999454,0.0015810276679840357,6.192569169959871
326,1597.06,316.3,67.1,552.0,48.98,1,Apollo,1000,4.0,2500,1598.64,353.2,1.0,1.5800000000001546,0.00499525766677254,18.808144166931967
327,1598.64,353.2,65.2,539.0,49.57,1,Apollo,1000,4.0,2500,1599.14,379.7,1.0,0.5,0.0014156285390713478,5.5390713476783695
328,1599.14,379.7,59.7,564.0,49.14,1,Apollo,1000,4.0,2500,1600.72,372.7,1.0,1.5799999999999272,0.004161179878851533,16.72294969712854
329,1600.72,372.7,72.3,482.0,48.88,1,Apollo,1000,4.0,2500,1601.22,361.6,1.0,0.5,0.0013415615776764154,5.353903944191039
330,1601.22,361.6,66.8,420.0,48.79,1,Apollo,1000,4.0,2500,1602.65,372.5,1.0,1.4300000000000637,0.003954646017699291,15.606615044248482
331,1602.65,372.5,67.2,507.0,49.96,1,Apollo,1000,4.0,2500,1603.18,389.1,1.0,0.5299999999999727,0.0014228187919462353,5.677046979865479
332,1603.18,389.1,70.0,590.0,43.79,1,Apollo,1000,4.0,2500,1604.61,423.4,1.0,1.4299999999998363,0.0036751477769206785,14.907869442301042
333,1604.61,423.4,63.1,485.0,48.18,1,Apollo,1000,4.0,2500,1605.12,381.4,1.0,0.5099999999999909,0.0012045347189418775,5.051336797354658
334,1605.12,381.4,67.4,565.0,47.66,1,Apollo,1000,4.0,2500,1606.56,387.5,1.0,1.4400000000000546,0.003775563712637794,15.198909281594704
335,1606.56,387.5,63.5,596.0,49.99,1,Apollo,1000,4.0,2500,1607.03,398.3,1.0,0.4700000000000273,0.001212903225806522,4.912258064516414
336,1607.03,398.3,61.7,566.0,48.63,1,Apollo,1000,4.0,2500,1608.68,394.6,1.0,1.650000000000091,0.0041426060758224725,16.956515189556544
337,1608.68,394.6,65.4,620.0,49.14,1,Apollo,1000,4.0,2500,1609.02,402.2,1.0,0.33999999999991815,0.0008616320324377042,3.514080081093933
338,1609.02,402.2,65.9,600.0,50.37,1,Apollo,1000,4.0,2500,1610.62,397.9,1.0,1.599999999999909,0.003978120338140003,16.34530084534964
339,1610.62,397.9,65.5,516.0,49.07,1,Apollo,1000,4.0,2500,1611.03,422.7,1.0,0.41000000000008185,0.0010304096506662023,4.2160241266658325
340,1611.03,422.7,64.2,596.0,50.24,1,Apollo,1000,4.0,2500,1612.51,444.7,1.0,1.4800000000000182,0.003501301159214616,14.673252898036612
341,1612.51,444.7,62.8,612.0,50.7,1,Apollo,1000,4.0,2500,1613.08,401.6,1.0,0.5699999999999363,0.0012817629862827442,5.484407465706606
342,1613.08,401.6,64.3,626.0,49.13,1,Apollo,1000,4.0,2500,1614.62,432.7,1.0,1.5399999999999636,0.003834661354581583,15.746653386453811
343,1614.62,432.7,64.3,605.0,48.09,1,Apollo,1000,4.0,2500,1615.33,413.8,1.0,0.7100000000000364,0.001640859718049541,6.942149295123998
344,1615.33,413.8,63.2,569.0,48.99,1,Apollo,1000,4.0,2500,1616.62,273.5,1.0,1.2899999999999636,0.0031174480425325366,12.953620106331197
345,1616.62,273.5,64.4,449.0,48.1,1,Apollo,1000,4.0,2500,1617.27,304.6,1.0,0.650000000000091,0.0023765996343696194,8.541499085924412
346,1617.27,304.6,68.6,475.0,44.06,1,Apollo,1000,4.0,2500,1618.56,439.8,1.0,1.2899999999999636,0.004235062376887602,15.74765594221886
347,1618.56,439.8,64.4,609.0,49.04,1,Apollo,1000,4.0,2500,1619.13,410.1,1.0,0.5700000000001637,0.0012960436562077392,5.5201091405200025
348,1619.13,410.1,63.7,594.0,49.84,1,Apollo,1000,4.0,2500,1620.55,377.2,1.0,1.4199999999998454,0.0034625701048520974,14.336425262129625
349,1620.55,377.2,62.4,552.0,48.5,1,Apollo,1000,4.0,2500,1621.08,403.7,1.0,0.5299999999999727,0.0014050901378578281,5.632725344644461
350,1621.08,403.7,64.4,494.0,50.96,1,Apollo,1000,4.0,2500,1622.57,382.5,1.0,1.490000000000009,0.0036908595491701984,15.187148872925532
351,1622.57,382.5,66.1,506.0,46.94,1,Apollo,1000,4.0,2500,1623.18,417.2,1.0,0.6100000000001273,0.0015947712418303982,6.426928104576505
352,1623.18,417.2,86.8,437.0,43.55,1,Apollo,1000,4.0,2500,1624.81,446.2,1.0,1.6299999999998818,0.003906999041226946,16.287497603066893
353,1624.81,446.2,79.1,507.0,33.8,1,Apollo,1000,4.0,2500,1625.21,447.7,1.0,0.40000000000009095,0.0008964589870015486,3.841147467504235
354,1625.21,447.7,77.8,656.0,37.19,1,Apollo,1000,4.0,2500,1626.86,438.3,1.0,1.6499999999998636,0.0036855036855033808,15.813759213757907
355,1626.86,438.3,81.6,562.0,30.86,1,Apollo,1000,4.0,2500,1627.33,494.0,1.0,0.4700000000000273,0.0010723248916268018,4.560812229067114
356,1627.33,494.0,83.8,629.0,29.6,1,Apollo,1000,4.0,2500,1628.71,480.4,1.0,1.3800000000001091,0.0027935222672066987,12.503805668017183
357,1628.71,480.4,62.2,712.0,48.89,1,Apollo,1000,4.0,2500,1629.08,455.3,1.0,0.36999999999989086,0.0007701915070772084,3.4054787676925846
358,1629.08,455.3,65.0,791.0,49.19,1,Apollo,1000,4.0,2500,1630.58,338.6,1.0,1.5,0.0032945310784098392,14.236327696024597
359,1630.58,338.6,59.2,663.0,53.07,1,Apollo,1000,4.0,2500,1631.03,263.8,1.0,0.4500000000000455,0.0013290017720024969,5.122504430006424
360,1631.03,263.8,64.7,691.0,49.26,1,Apollo,1000,4.0,2500,1632.5,367.7,1.0,1.4700000000000273,0.005572403335860603,19.811008339651618
361,1632.5,367.7,66.2,703.0,48.78,1,Apollo,1000,4.0,2500,1633.07,414.9,1.0,0.5699999999999363,0.0015501767745442925,6.155441936360477
362,1633.07,414.9,62.8,768.0,50.05,1,Apollo,1000,4.0,2500,1634.64,448.9,1.0,1.5700000000001637,0.0037840443480360664,15.74011087009082
363,1634.64,448.9,67.0,722.0,46.99,1,Apollo,1000,4.0,2500,1635.05,432.5,1.0,0.4099999999998545,0.0009133437291152919,3.9233593227876478
364,1635.05,432.5,65.5,732.0,49.47,1,Apollo,1000,4.0,2500,1636.51,446.0,1.0,1.4600000000000364,0.003375722543352685,14.279306358381858
365,1636.51,446.0,64.1,804.0,48.61,1,Apollo,1000,4.0,2500,1637.15,472.7,1.0,0.6400000000001,0.0014349775784755607,6.147443946189302
366,1637.15,472.7,61.6,848.0,49.45,1,Apollo,1000,4.0,2500,1638.62,464.9,1.0,1.4699999999998,0.0031097947958531836,13.654486989632158
367,1638.62,464.9,63.0,816.0,48.97,1,Apollo,1000,4.0,2500,1639.27,472.9,1.0,0.650000000000091,0.0013981501398152097,6.095375349538388
368,1639.27,472.9,63.2,855.0,48.02,1,Apollo,1000,4.0,2500,1640.51,476.2,1.0,1.240000000000009,0.0026221188411926608,11.515297102981688
369,1640.51,476.2,59.7,832.0,54.29,1,Apollo,1000,4.0,2500,1641.04,387.6,1.0,0.5299999999999727,0.0011129777404451338,4.902444351112726
370,1641.04,387.6,62.3,892.0,50.55,1,Apollo,1000,4.0,2500,1642.7,498.3,1.0,1.6600000000000819,0.0042827657378743085,17.3469143446861
371,1642.7,498.3,63.3,874.0,49.53,1,Apollo,1000,4.0,2500,1643.11,462.0,1.0,0.4099999999998545,0.0008227975115389413,3.696993778846771
372,1643.11,462.0,62.8,792.0,50.01,1,Apollo,1000,4.0,2500,1644.56,456.2,1.0,1.4500000000000455,0.003138528138528237,13.646320346320774
373,1644.56,456.2,60.9,866.0,50.06,1,Apollo,1000,4.0,2500,1645.13,444.0,1.0,0.5700000000001637,0.0012494519947395084,5.403629986849426
374,1645.13,444.0,59.4,863.0,49.8,1,Apollo,1000,4.0,2500,1646.52,460.6,1.0,1.3899999999998727,0.0031306306306303436,13.38657657657535
375,1646.52,460.6,61.9,955.0,50.03,1,Apollo,1000,4.0,2500,1647.16,432.5,1.0,0.6400000000001,0.0013894919669997828,6.033729917499857
376,1647.16,432.5,62.8,837.0,48.25,1,Apollo,1000,4.0,2500,1648.52,441.5,1.0,1.3599999999999,0.0031445086705199996,13.3012716762996
377,1648.52,441.5,62.3,715.0,50.59,1,Apollo,1000,4.0,2500,1649.17,480.4,1.0,0.650000000000091,0.0014722536806344075,6.280634201586382
378,1649.17,480.4,64.9,660.0,48.23,1,Apollo,1000,4.0,2500,1650.53,421.4,1.0,1.3599999999999,0.0028309741881763113,12.517435470440379
379,1650.53,421.4,61.5,782.0,48.52,1,Apollo,1000,4.0,2500,1651.17,510.8,1.0,0.6400000000001,0.0015187470336974374,6.356867584243993
380,1651.17,510.8,62.6,756.0,48.1,1,Apollo,1000,4.0,2500,1652.69,452.2,1.0,1.5199999999999818,0.0029757243539545457,13.519310884886291
381,1652.69,452.2,58.9,865.0,52.63,1,Apollo,1000,4.0,2500,1653.05,435.3,1.0,0.35999999999989996,0.0007961079168507297,3.430269792126424
382,1653.05,435.3,62.1,781.0,51.9,1,Apollo,1000,4.0,2500,1655.03,291.8,1.0,1.9800000000000182,0.004548587181254349,19.291467953135943
383,1655.03,291.8,107.2,67.0,13.66,1,Apollo,1000,4.0,2500,1656.53,343.7,1.0,1.5,0.005140507196710075,18.851267991775188
384,1656.53,343.7,98.3,354.0,19.12,1,Apollo,1000,4.0,2500,1657.03,345.7,1.0,0.5,0.0014547570555717196,5.636892638929299
385,1657.03,345.7,93.1,402.0,23.19,1,Apollo,1000,4.0,2500,1658.94,459.3,1.0,1.9100000000000819,0.005525021695111605,21.45255423777934
386,1658.94,459.3,81.2,507.0,36.02,1,Apollo,1000,4.0,2500,1659.46,605.6,1.0,0.5199999999999818,0.0011321576311778398,4.9103940779445265
387,1659.46,605.6,77.6,569.0,40.45,1,Apollo,1000,4.0,2500,1660.58,574.0,1.0,1.1199999999998909,0.0018494055482164643,9.103513870540723
388,1660.58,574.0,75.2,666.0,42.67,1,Apollo,1000,4.0,2500,1661.1,565.6,1.0,0.5199999999999818,0.0009059233449477035,4.344808362369186
389,1661.1,565.6,77.2,529.0,39.44,1,Apollo,1000,4.0,2500,1662.58,564.2,1.0,1.4800000000000182,0.0026166902404526488,12.461725601131695
390,1662.58,564.2,69.4,682.0,48.57,1,Apollo,1000,4.0,2500,1663.06,516.6,1.0,0.4800000000000182,0.0008507621410847539,4.046905352711958
391,1663.06,516.6,70.6,657.0,46.48,1,Apollo,1000,4.0,2500,1664.51,355.3,1.0,1.4500000000000455,0.0028068137824236263,12.817034456059247
392,1664.51,355.3,63.4,474.0,54.5,1,Apollo,1000,4.0,2500,1665.07,312.7,1.0,0.5599999999999454,0.0015761328454825371,6.1803321137061245
393,1665.07,312.7,64.9,497.0,52.23,1,Apollo,1000,4.0,2500,1666.63,415.6,1.0,1.5600000000001728,0.004988807163415967,18.71201790854061
394,1666.63,415.6,66.7,660.0,51.11,1,Apollo,1000,4.0,2500,1667.14,387.5,1.0,0.5099999999999909,0.001227141482194396,5.107853705485953
395,1667.14,387.5,67.4,577.0,49.61,1,Apollo,1000,4.0,2500,1668.5,377.0,1.0,1.3599999999999,0.0035096774193545803,14.214193548386051
396,1668.5,377.0,69.9,555.0,46.4,1,Apollo,1000,4.0,2500,1669.13,428.8,1.0,0.6300000000001091,0.0016710875331567882,6.697718832892407
397,1669.13,428.8,73.1,537.0,41.7,1,Apollo,1000,4.0,2500,1670.58,405.9,1.0,1.449999999999818,0.0033815298507458443,14.253824626863883
398,1670.58,405.9,67.4,487.0,50.05,1,Apollo,1000,4.0,2500,1671.13,400.1,1.0,0.5500000000001819,0.0013550135501359496,5.587533875340601
399,1671.13,400.1,69.4,544.0,47.72,1,Apollo,1000,4.0,2500,1672.51,438.7,1.0,1.3799999999998818,0.0034491377155708115,14.142844288926556
400,1672.51,438.7,67.5,648.0,49.37,1,Apollo,1000,4.0,2500,1673.1,431.0,1.0,0.5899999999999181,0.0013448826077043952,5.722206519260661
401,1673.1,431.0,67.0,629.0,50.07,1,Apollo,1000,4.0,2500,1674.67,443.6,1.0,1.5700000000001637,0.003642691415313605,15.386728538284668
402,1674.67,443.6,63.3,621.0,49.81,1,Apollo,1000,4.0,2500,1675.07,464.5,1.0,0.3999999999998636,0.0009017132551845436,3.854283137960813
403,1675.07,464.5,65.0,643.0,52.37,1,Apollo,1000,4.0,2500,1676.52,407.7,1.0,1.4500000000000455,0.003121636167922595,13.60409041980667
404,1676.52,407.7,68.8,627.0,48.25,1,Apollo,1000,4.0,2500,1677.1,432.1,1.0,0.5799999999999272,0.0014226146676476017,5.876536669118713
405,1677.1,432.1,65.8,569.0,49.77,1,Apollo,1000,4.0,2500,1678.65,360.3,1.0,1.550000000000182,0.003587132608192969,15.16783152048315
406,1678.65,360.3,66.3,636.0,47.74,1,Apollo,1000,4.0,2500,1679.02,387.3,1.0,0.36999999999989086,0.0010269220094362777,4.047305023590258
407,1679.02,387.3,67.7,567.0,47.6,1,Apollo,1000,4.0,2500,1680.57,427.7,1.0,1.5499999999999545,0.004002065582235875,16.205163955589505
408,1680.57,427.7,67.1,662.0,48.2,1,Apollo,1000,4.0,2500,1681.13,422.7,1.0,0.5600000000001728,0.001309328968903841,5.513322422260294
409,1681.13,422.7,68.1,599.0,48.16,1,Apollo,1000,4.0,2500,1682.64,534.9,1.0,1.509999999999991,0.003572273480009442,14.970683700023569
410,1682.64,534.9,82.2,436.0,28.46,1,Apollo,1000,4.0,2500,1683.4,554.6,1.0,0.7599999999999909,0.001420826322677119,6.592065806692761
411,1683.4,554.6,68.8,578.0,46.02,1,Apollo,1000,4.0,2500,1684.21,728.6,1.0,0.8099999999999454,0.0014605120807788413,6.891280201946885
412,1684.21,728.6,81.2,481.0,34.39,1,Apollo,1000,4.0,2500,1684.78,688.8,1.0,0.5699999999999363,0.000782322261871996,4.235805654679735
413,1684.78,688.8,83.7,435.0,35.32,1,Apollo,1000,4.0,2500,1686.78,503.4,1.0,2.0,0.0029036004645760743,15.259001161440185
414,1686.78,503.4,64.0,596.0,52.18,1,Apollo,1000,4.0,2500,1687.3,457.6,1.0,0.5199999999999818,0.0010329757647993282,4.662439411998248
415,1687.3,457.6,66.5,580.0,50.23,1,Apollo,1000,4.0,2500,1688.56,463.0,1.0,1.259999999999991,0.0027534965034964835,11.923741258741172
416,1688.56,463.0,64.1,573.0,52.05,1,Apollo,1000,4.0,2500,1689.16,467.1,1.0,0.6000000000001364,0.0012958963282940312,5.639740820735623
417,1689.16,467.1,67.4,569.0,50.29,1,Apollo,1000,4.0,2500,1690.71,404.0,1.0,1.5499999999999545,0.0033183472489829897,14.495868122457292
418,1690.71,404.0,62.3,608.0,51.5,1,Apollo,1000,4.0,2500,1691.06,383.8,1.0,0.34999999999990905,0.0008663366336631413,3.5658415841574893
419,1691.06,383.8,64.1,654.0,51.26,1,Apollo,1000,4.0,2500,1692.59,430.5,1.0,1.5299999999999727,0.003986451276706547,16.086128191766257
420,1692.59,430.5,65.6,661.0,49.81,1,Apollo,1000,4.0,2500,1693.17,395.3,1.0,0.5800000000001546,0.0013472706155636576,5.6881765389097625
421,1693.17,395.3,67.3,695.0,47.68,1,Apollo,1000,4.0,2500,1694.5,422.8,1.0,1.3299999999999272,0.0033645332658738354,13.731333164684298
422,1694.5,422.8,63.0,713.0,52.24,1,Apollo,1000,4.0,2500,1695.06,384.0,1.0,0.5599999999999454,0.0013245033112581491,5.551258278145155
423,1695.06,384.0,65.3,580.0,49.73,1,Apollo,1000,4.0,2500,1696.6,461.7,1.0,1.5399999999999636,0.004010416666666572,16.186041666666284
424,1696.6,461.7,66.2,614.0,49.72,1,Apollo,1000,4.0,2500,1697.17,416.6,1.0,0.5700000000001637,0.0012345679012349224,5.3664197530879605
425,1697.17,416.6,64.3,630.0,51.02,1,Apollo,1000,4.0,2500,1698.63,538.6,1.0,1.4600000000000364,0.0035045607297168415,14.60140182429225
426,1698.63,538.6,66.2,605.0,50.56,1,Apollo,1000,4.0,2500,1699.03,438.3,1.0,0.3999999999998636,0.0007426661715556323,3.4566654288885355
427,1699.03,438.3,64.3,730.0,51.84,1,Apollo,1000,4.0,2500,1700.65,466.2,1.0,1.6200000000001182,0.0036960985626286066,15.72024640657199
428,1700.65,466.2,66.5,768.0,48.53,1,Apollo,1000,4.0,2500,1701.06,512.2,1.0,0.4099999999998545,0.0008794508794505673,3.838627198625836
429,1701.06,512.2,64.7,697.0,50.66,1,Apollo,1000,4.0,2500,1702.5,432.2,1.0,1.4400000000000546,0.0028114017961734764,12.788504490433908
430,1702.5,432.2,65.5,664.0,49.15,1,Apollo,1000,4.0,2500,1703.09,449.3,1.0,0.5899999999999181,0.0013651087459507591,5.772771864876571
431,1703.09,449.3,62.7,672.0,50.69,1,Apollo,1000,4.0,2500,1704.51,488.7,1.0,1.4200000000000728,0.003160471845092528,13.58117961273161
432,1704.51,488.7,63.7,693.0,50.32,1,Apollo,1000,4.0,2500,1705.13,456.8,1.0,0.6200000000001182,0.0012686719869042732,5.651679967261156
433,1705.13,456.8,63.6,753.0,51.11,1,Apollo,1000,4.0,2500,1706.54,424.6,1.0,1.4099999999998545,0.0030866900175128163,13.35672504378146
434,1706.54,424.6,64.5,612.0,50.04,1,Apollo,1000,4.0,2500,1707.09,475.5,1.0,0.5499999999999545,0.0012953367875646596,5.438341968911467
435,1707.09,475.5,62.7,691.0,51.64,1,Apollo,1000,4.0,2500,1708.58,427.1,1.0,1.490000000000009,0.0031335436382755183,13.793859095688832
436,1708.58,427.1,62.4,551.0,51.75,1,Apollo,1000,4.0,2500,1709.06,387.9,1.0,0.4800000000000182,0.0011238585811285838,4.729646452821532
437,1709.06,387.9,64.5,578.0,52.94,1,Apollo,1000,4.0,2500,1710.53,402.8,1.0,1.4700000000000273,0.003789636504253744,15.354091260634469
438,1710.53,402.8,60.4,589.0,53.58,1,Apollo,1000,4.0,2500,1711.13,387.5,1.0,0.6000000000001364,0.0014895729890768035,6.123932472692554
439,1711.13,387.5,65.0,632.0,49.7,1,Apollo,1000,4.0,2500,1712.58,415.0,1.0,1.449999999999818,0.003741935483870498,15.154838709675518
440,1712.58,415.0,66.0,643.0,49.55,1,Apollo,1000,4.0,2500,1713.11,409.5,1.0,0.5299999999999727,0.0012771084337348739,5.312771084337076
441,1713.11,409.5,61.7,638.0,52.86,1,Apollo,1000,4.0,2500,1714.6,389.5,1.0,1.490000000000009,0.003638583638583661,15.05645909645919
442,1714.6,389.5,62.3,573.0,49.79,1,Apollo,1000,4.0,2500,1715.08,369.0,1.0,0.4800000000000182,0.0012323491655969658,5.000872913992487
443,1715.08,369.0,62.3,689.0,52.51,1,Apollo,1000,4.0,2500,1716.54,229.0,1.0,1.4600000000000364,0.003956639566395762,15.73159891598955
444,1716.54,229.0,61.4,634.0,52.47,1,Apollo,1000,4.0,2500,1717.03,208.1,1.0,0.4900000000000091,0.0021397379912664154,7.309344978166075
445,1717.03,208.1,75.1,383.0,42.19,1,Apollo,1000,4.0,2500,1718.5,440.1,1.0,1.4700000000000273,0.007063911580970818,23.539778952427156
446,1718.5,440.1,69.7,486.0,52.56,1,Apollo,1000,4.0,2500,1719.06,391.6,1.0,0.5599999999999454,0.001272438082253909,5.421095205634554
447,1719.06,391.6,61.1,537.0,51.76,1,Apollo,1000,4.0,2500,1720.67,427.0,1.0,1.6100000000001273,0.00411133810010247,16.718345250256682
448,1720.67,427.0,59.9,458.0,53.11,1,Apollo,1000,4.0,2500,1721.14,358.2,1.0,0.4700000000000273,0.0011007025761124761,4.6317564402813
449,1721.14,358.2,63.6,509.0,50.01,1,Apollo,1000,4.0,2500,1722.5,389.3,1.0,1.3599999999999,0.00379676158570603,14.931903964264675
450,1722.5,389.3,61.9,627.0,50.7,1,Apollo,1000,4.0,2500,1723.07,407.3,1.0,0.5699999999999363,0.00146416645260708,5.940416131517446
451,1723.07,407.3,65.5,566.0,49.01,1,Apollo,1000,4.0,2500,1724.66,398.6,1.0,1.5900000000001455,0.0039037564448812802,16.119391112203783
452,1724.66,398.6,64.5,569.0,49.68,1,Apollo,1000,4.0,2500,1725.04,410.0,1.0,0.37999999999988177,0.0009533366783740135,3.903341695934561
453,1725.04,410.0,63.7,701.0,48.36,1,Apollo,1000,4.0,2500,1726.62,419.6,1.0,1.5799999999999272,0.0038536585365851884,15.95414634146268
454,1726.62,419.6,65.7,646.0,48.47,1,Apollo,1000,4.0,2500,1727.13,419.4,1.0,0.5100000000002183,0.0012154432793141522,5.078608198286254
455,1727.13,419.4,58.3,548.0,56.14,1,Apollo,1000,4.0,2500,1728.52,203.4,1.0,1.3899999999998727,0.0033142584644727537,13.845646161181374
456,1728.52,203.4,59.9,636.0,51.5,1,Apollo,1000,4.0,2500,1729.01,198.8,1.0,0.4900000000000091,0.0024090462143559936,7.98261553589002
457,1729.01,198.8,66.2,622.0,46.8,1,Apollo,1000,4.0,2500,1730.5,197.9,1.0,1.490000000000009,0.007494969818913526,24.697424547283852
458,1730.5,197.9,65.7,511.0,49.1,1,Apollo,1000,4.0,2500,1731.02,198.0,1.0,0.5199999999999818,0.002627589691763425,8.64897422940849
459,1731.02,198.0,65.5,530.0,48.55,1,Apollo,1000,4.0,2500,1732.54,220.8,1.0,1.5199999999999818,0.007676767676767584,25.271919191918887
460,1732.54,220.8,64.4,654.0,50.03,1,Apollo,1000,4.0,2500,1733.03,237.8,1.0,0.4900000000000091,0.0022192028985507655,7.50800724637695
461,1733.03,237.8,62.9,698.0,51.24,1,Apollo,1000,4.0,2500,1734.57,238.5,1.0,1.5399999999999636,0.006476030277544002,22.35007569385986
462,1734.57,238.5,65.3,586.0,49.88,1,Apollo,1000,4.0,2500,1735.04,234.7,1.0,0.4700000000000273,0.0019706498951783114,6.806624737945888
463,1735.04,234.7,63.0,624.0,51.53,1,Apollo,1000,4.0,2500,1736.55,157.2,1.0,1.509999999999991,0.006433745206646745,22.124363016616826
464,1736.55,157.2,61.3,548.0,50.71,1,Apollo,1000,4.0,2500,1737.13,157.6,1.0,0.5800000000001546,0.0036895674300264293,11.543918575066693
465,1737.13,157.6,62.8,539.0,49.53,1,Apollo,1000,4.0,2500,1738.59,155.7,1.0,1.459999999999809,0.009263959390861732,28.999898477153568
466,1738.59,155.7,61.8,541.0,50.95,1,Apollo,1000,4.0,2500,1739.08,155.5,1.0,0.4900000000000091,0.0031470777135517605,9.827694283879438
467,1739.08,155.5,61.9,574.0,48.89,1,Apollo,1000,4.0,2500,1740.64,301.7,1.0,1.5600000000001728,0.010032154340837124,31.3203858520935
468,1740.64,301.7,64.4,546.0,46.91,1,Apollo,1000,4.0,2500,1741.03,397.5,1.0,0.38999999999987267,0.0012926748425584112,4.791687106395519
469,1741.03,397.5,54.5,534.0,60.55,1,Apollo,1000,4.0,2500,1742.64,331.3,1.0,1.6100000000001273,0.0040503144654091255,16.56578616352332
470,1742.64,331.3,64.2,644.0,50.24,1,Apollo,1000,4.0,2500,1743.18,349.6,1.0,0.5399999999999636,0.0016299426501659028,6.234856625414611
471,1743.18,349.6,67.6,412.0,43.3,1,Apollo,1000,4.0,2500,1744.67,385.1,1.0,1.490000000000009,0.004262013729977142,16.61503432494289
472,1744.67,385.1,62.6,414.0,48.47,1,Apollo,1000,4.0,2500,1745.1,391.7,1.0,0.4299999999998363,0.0011165930927027688,4.511482731756267
473,1745.1,391.7,63.6,443.0,48.99,1,Apollo,1000,4.0,2500,1746.52,391.4,1.0,1.4200000000000728,0.003625223385243995,14.743058463110279
474,1746.52,391.4,64.8,499.0,46.69,1,Apollo,1000,4.0,2500,1747.07,418.3,1.0,0.5499999999999545,0.0014052120592742835,5.713030148185527
475,1747.07,418.3,64.7,521.0,50.66,1,Apollo,1000,4.0,2500,1748.52,396.8,1.0,1.4500000000000455,0.0034664116662683373,14.466029165671026
476,1748.52,396.8,60.8,597.0,51.25,1,Apollo,1000,4.0,2500,1750.54,436.2,1.0,2.019999999999982,0.005090725806451567,20.806814516128846
477,1750.54,436.2,81.3,272.0,36.26,1,Apollo,1000,4.0,2500,1751.29,505.6,1.0,0.75,0.0017193947730398899,7.298486932599725
478,1751.29,505.6,68.6,453.0,50.28,1,Apollo,1000,4.0,2500,1752.51,380.4,1.0,1.2200000000000273,0.0024129746835443574,10.912436708861001
479,1752.51,380.4,70.8,567.0,50.09,1,Apollo,1000,4.0,2500,1753.0,388.0,1.0,0.4900000000000091,0.001288117770767637,5.180294426919129
480,1753.0,388.0,70.6,537.0,49.1,1,Apollo,1000,4.0,2500,1754.56,388.0,1.0,1.5599999999999454,0.00402061855670089,16.291546391752007
481,1754.56,388.0,71.1,484.0,48.01,1,Apollo,1000,4.0,2500,1755.1,390.3,1.0,0.5399999999999636,0.0013917525773194939,5.639381443298589
482,1755.1,390.3,72.7,568.0,47.19,1,Apollo,1000,4.0,2500,1756.56,451.5,1.0,1.4600000000000364,0.0037407122726109054,15.191780681527408
483,1756.56,451.5,68.1,668.0,50.15,1,Apollo,1000,4.0,2500,1757.08,401.0,1.0,0.5199999999999818,0.0011517165005536696,4.959291251384101
484,1757.08,401.0,71.3,629.0,49.39,1,Apollo,1000,4.0,2500,1758.66,372.8,1.0,1.5800000000001546,0.003940149625935548,16.170374064839486
485,1758.66,372.8,70.9,504.0,47.91,1,Apollo,1000,4.0,2500,1759.04,349.8,1.0,0.37999999999988177,0.0010193133047207128,4.068283261801309
486,1759.04,349.8,61.3,557.0,57.33,1,Apollo,1000,4.0,2500,1760.55,241.6,1.0,1.509999999999991,0.004316752429959951,16.83188107489984
487,1760.55,241.6,60.9,527.0,58.53,1,Apollo,1000,4.0,2500,1761.03,184.6,1.0,0.4800000000000182,0.0019867549668874922,6.886887417218803
488,1761.03,184.6,67.8,441.0,50.4,1,Apollo,1000,4.0,2500,1762.53,94.9,1.0,1.5,0.008125677139761646,26.314192849404115
489,1762.53,94.9,93.5,354.0,24.21,1,Apollo,1000,4.0,2500,1763.02,97.2,1.0,0.4900000000000091,0.0051633298208641635,14.868324552160445
490,1763.02,97.2,89.1,338.0,30.31,1,Apollo,1000,4.0,2500,1764.54,139.3,1.0,1.5199999999999818,0.01563786008230434,45.17465020576078
491,1764.54,139.3,98.9,271.0,19.11,1,Apollo,1000,4.0,2500,1765.01,147.4,1.0,0.4700000000000273,0.003374012921751811,10.315032304379637
492,1765.01,147.4,92.0,267.0,26.28,1,Apollo,1000,4.0,2500,1766.54,194.3,1.0,1.5299999999999727,0.010379918588873627,32.06979647218396
493,1766.54,194.3,93.4,338.0,24.56,1,Apollo,1000,4.0,2500,1767.02,204.9,1.0,0.4800000000000182,0.0024704065877509942,8.09601646937756
494,1767.02,204.9,96.6,314.0,21.47,1,Apollo,1000,4.0,2500,1768.54,235.6,1.0,1.5199999999999818,0.00741825280624686,24.62563201561708
495,1768.54,235.6,94.3,341.0,22.82,1,Apollo,1000,4.0,2500,1769.02,226.3,1.0,0.4800000000000182,0.002037351443124016,7.013378607810113
496,1769.02,226.3,94.6,296.0,23.7,1,Apollo,1000,4.0,2500,1770.69,243.3,1.0,1.6700000000000728,0.007379584622183264,25.12896155545845
497,1770.69,243.3,91.1,480.0,26.52,1,Apollo,1000,4.0,2500,1771.05,248.0,1.0,0.35999999999989996,0.001479654747225236,5.13913686806269
498,1771.05,248.0,93.2,345.0,26.25,1,Apollo,1000,4.0,2500,1772.56,269.5,1.0,1.509999999999991,0.006088709677419318,21.26177419354826
499,1772.56,269.5,87.9,414.0,30.09,1,Apollo,1000,4.0,2500,1773.07,281.2,1.0,0.5099999999999909,0.001892393320964716,6.770983302411754
500,1773.07,281.2,88.4,395.0,31.78,1,Apollo,1000,4.0,2500,1774.59,306.1,1.0,1.5199999999999818,0.005405405405405341,19.59351351351328
501,1774.59,306.1,89.8,475.0,27.92,1,Apollo,1000,4.0,2500,1775.02,348.3,1.0,0.43000000000006366,0.0014047696831103026,5.231924207776011
502,1775.02,348.3,88.7,481.0,29.86,1,Apollo,1000,4.0,2500,1776.58,316.3,1.0,1.5599999999999454,0.004478897502153159,17.43724375538268
503,1776.58,316.3,70.3,355.0,47.26,1,Apollo,1000,4.0,2500,1777.05,225.2,1.0,0.4700000000000273,0.0014859310780905067,5.5948276952263765
504,1777.05,225.2,71.6,381.0,45.8,1,Apollo,1000,4.0,2500,1778.73,256.5,1.0,1.6800000000000637,0.007460035523978969,25.370088809947678
505,1778.73,256.5,69.7,495.0,47.94,1,Apollo,1000,4.0,2500,1779.1,292.2,1.0,0.36999999999989086,0.0014424951267052275,5.086237816762632
506,1779.1,292.2,71.2,510.0,46.6,1,Apollo,1000,4.0,2500,1780.53,314.4,1.0,1.4300000000000637,0.004893908281998849,17.95477070499738
507,1780.53,314.4,87.5,413.0,31.68,1,Apollo,1000,4.0,2500,1781.0,334.6,1.0,0.4700000000000273,0.0014949109414759138,5.617277353689894
508,1781.0,334.6,85.7,233.0,31.25,1,Apollo,1000,4.0,2500,1782.73,361.4,1.0,1.7300000000000182,0.005170352659892463,19.845881649731233
509,1782.73,361.4,90.8,245.0,27.28,1,Apollo,1000,4.0,2500,1783.25,380.9,1.0,0.5199999999999818,0.0014388489208632593,5.677122302158075
510,1783.25,380.9,98.8,274.0,17.96,1,Apollo,1000,4.0,2500,1784.59,381.3,1.0,1.3399999999999181,0.003517983722761665,14.154959306903836
511,1784.59,381.3,118.1,115.0,5.96,1,Apollo,1000,4.0,2500,1785.14,455.9,1.0,0.5500000000001819,0.0014424337791769783,5.8060844479431735
512,1785.14,455.9,105.9,118.0,9.64,1,Apollo,1000,4.0,2500,1786.5,592.6,1.0,1.3599999999999,0.002983110331212766,12.897775828031516
513,1786.5,592.6,89.6,441.0,29.14,1,Apollo,1000,4.0,2500,1787.03,641.4,1.0,0.5299999999999727,0.0008943638204521983,4.355909551130386
514,1787.03,641.4,90.0,367.0,26.36,1,Apollo,1000,4.0,2500,1788.71,422.2,1.0,1.6800000000000637,0.0026192703461179667,13.268175865295172
515,1788.71,422.2,65.9,427.0,53.43,1,Apollo,1000,4.0,2500,1789.2,339.5,1.0,0.4900000000000091,0.0011605873993368288,4.861468498342108
516,1789.2,339.5,67.8,415.0,48.47,1,Apollo,1000,4.0,2500,1790.55,328.6,1.0,1.349999999999909,0.0039764359351985535,15.34108983799602
517,1790.55,328.6,65.6,555.0,48.41,1,Apollo,1000,4.0,2500,1791.03,359.5,1.0,0.4800000000000182,0.001460742544126653,5.571856360316705
518,1791.03,359.5,67.1,526.0,50.0,1,Apollo,1000,4.0,2500,1792.67,431.1,1.0,1.6400000000001,0.004561891515994715,17.964728789987188
519,1792.67,431.1,66.6,575.0,51.09,1,Apollo,1000,4.0,2500,1793.03,396.1,1.0,0.35999999999989996,0.0008350730688932961,3.52768267223284
520,1793.03,396.1,67.0,495.0,48.98,1,Apollo,1000,4.0,2500,1794.79,397.3,1.0,1.759999999999991,0.0044433223933349935,18.148305983337448
521,1794.79,397.3,68.9,595.0,50.81,1,Apollo,1000,4.0,2500,1795.12,403.8,1.0,0.32999999999992724,0.0008306065945127794,3.3965164862816573
522,1795.12,403.8,65.6,584.0,49.27,1,Apollo,1000,4.0,2500,1796.55,374.4,1.0,1.4300000000000637,0.0035413571074791074,14.573392768698023
523,1796.55,374.4,62.3,452.0,51.64,1,Apollo,1000,4.0,2500,1797.0,305.5,1.0,0.4500000000000455,0.0012019230769231984,4.804807692308178
524,1797.0,305.5,66.4,532.0,52.17,1,Apollo,1000,4.0,2500,1798.55,422.8,1.0,1.5499999999999545,0.005073649754500669,18.884124386251493
525,1798.55,422.8,70.1,490.0,48.48,1,Apollo,1000,4.0,2500,1799.07,411.7,1.0,0.5199999999999818,0.001229895931882644,5.154739829706537
526,1799.07,411.7,68.0,560.0,48.44,1,Apollo,1000,4.0,2500,1800.57,425.0,1.0,1.5,0.0036434296818071417,15.108574204517854
527,1800.57,425.0,65.0,483.0,50.34,1,Apollo,1000,4.0,2500,1801.08,398.5,1.0,0.5099999999999909,0.0011999999999999786,5.03999999999991
528,1801.08,398.5,62.8,434.0,52.76,1,Apollo,1000,4.0,2500,1802.72,363.6,1.0,1.6400000000001,0.004115432873275032,16.84858218318798
529,1802.72,363.6,69.9,502.0,48.35,1,Apollo,1000,4.0,2500,1803.33,415.6,1.0,0.6099999999999,0.0016776677667764024,6.634169416940606
530,1803.33,415.6,68.6,493.0,48.13,1,Apollo,1000,4.0,2500,1804.51,442.5,1.0,1.1800000000000637,0.0028392685274303744,11.81817131857619
531,1804.51,442.5,66.3,625.0,50.16,1,Apollo,1000,4.0,2500,1805.25,455.0,1.0,0.7400000000000091,0.0016723163841808114,7.1407909604520645
532,1805.25,455.0,67.5,665.0,50.66,1,Apollo,1000,4.0,2500,1806.6,430.0,1.0,1.349999999999909,0.0029670329670327673,12.817582417581555
533,1806.6,430.0,63.0,648.0,51.56,1,Apollo,1000,4.0,2500,1807.15,456.7,1.0,0.5500000000001819,0.0012790697674422834,5.397674418606436
534,1807.15,456.7,68.4,554.0,49.85,1,Apollo,1000,4.0,2500,1808.53,415.2,1.0,1.3799999999998818,0.0030216772498355194,13.074193124588326
535,1808.53,415.2,66.9,674.0,51.48,1,Apollo,1000,4.0,2500,1809.09,413.9,1.0,0.5599999999999454,0.0013487475915220266,5.611868978804848
536,1809.09,413.9,65.7,531.0,51.04,1,Apollo,1000,4.0,2500,1810.51,391.9,1.0,1.4200000000000728,0.0034307803817348946,14.256950954337528
537,1810.51,391.9,65.7,620.0,49.49,1,Apollo,1000,4.0,2500,1811.21,392.9,1.0,0.7000000000000455,0.001786169941311675,7.265424853279369
538,1811.21,392.9,66.3,577.0,49.34,1,Apollo,1000,4.0,2500,1812.64,394.4,1.0,1.4300000000000637,0.0036396029524053543,14.819007381013641
539,1812.64,394.4,64.0,568.0,51.92,1,Apollo,1000,4.0,2500,1813.0,370.9,1.0,0.35999999999989996,0.0009127789046650608,3.721947261662252
540,1813.0,370.9,64.5,631.0,49.94,1,Apollo,1000,4.0,2500,1814.67,413.6,1.0,1.6700000000000728,0.004502561337287875,17.93640334321998
541,1814.67,413.6,64.9,540.0,49.65,1,Apollo,1000,4.0,2500,1815.03,404.8,1.0,0.35999999999989996,0.0008704061895548838,3.6160154738868093
542,1815.03,404.8,62.9,681.0,50.9,1,Apollo,1000,4.0,2500,1816.68,414.7,1.0,1.650000000000091,0.004076086956521964,16.790217391305273
543,1816.68,414.7,65.9,578.0,50.28,1,Apollo,1000,4.0,2500,1817.06,396.8,1.0,0.37999999999988177,0.0009163250542558038,3.8108126356390364
544,1817.06,396.8,65.7,599.0,49.17,1,Apollo,1000,4.0,2500,1818.73,455.7,1.0,1.6700000000000728,0.004208669354838893,17.20167338709752
545,1818.73,455.7,83.6,366.0,31.4,1,Apollo,1000,4.0,2500,1819.0,505.2,1.0,0.2699999999999818,0.0005924950625411056,2.5612376563526915
546,1819.0,505.2,90.4,472.0,29.47,1,Apollo,1000,4.0,2500,1820.65,578.1,1.0,1.650000000000091,0.0032660332541569496,14.765083135392738
547,1820.65,578.1,92.5,293.0,19.52,1,Apollo,1000,4.0,2500,1821.19,727.0,1.0,0.5399999999999636,0.000934094447327389,4.495236118318327
548,1821.19,727.0,88.0,436.0,23.81,1,Apollo,1000,4.0,2500,1822.52,371.2,1.0,1.3299999999999272,0.0018294360385143428,9.893590096285566
549,1822.52,371.2,68.1,648.0,48.45,1,Apollo,1000,4.0,2500,1823.34,353.8,1.0,0.8199999999999363,0.0022090517241377594,8.802629310344145
550,1823.34,353.8,66.4,462.0,47.42,1,Apollo,1000,4.0,2500,1824.52,432.8,1.0,1.1800000000000637,0.0033352176370832778,13.05804409270845
551,1824.52,432.8,65.0,509.0,50.33,1,Apollo,1000,4.0,2500,1825.22,388.2,1.0,0.7000000000000455,0.0016173752310537097,6.843438077634456
552,1825.22,388.2,65.0,670.0,49.57,1,Apollo,1000,4.0,2500,1826.53,432.2,1.0,1.3099999999999454,0.0033745492014424154,13.67637300360582
553,1826.53,432.2,65.3,551.0,47.56,1,Apollo,1000,4.0,2500,1827.12,493.5,1.0,0.5899999999999181,0.0013651087459507591,5.772771864876571
554,1827.12,493.5,64.5,538.0,48.35,1,Apollo,1000,4.0,2500,1828.64,405.7,1.0,1.5200000000002092,0.0030800405268494612,13.78010131712449
555,1828.64,405.7,62.0,460.0,50.81,1,Apollo,1000,4.0,2500,1829.15,375.7,1.0,0.5099999999999909,0.0012570865171308624,5.18271629282712
556,1829.15,375.7,65.5,590.0,48.92,1,Apollo,1000,4.0,2500,1830.66,417.3,1.0,1.509999999999991,0.0040191642267766595,16.087910566941613
557,1830.66,417.3,62.9,601.0,49.16,1,Apollo,1000,4.0,2500,1831.03,414.2,1.0,0.36999999999989086,0.0008866522885211858,3.696630721302528
558,1831.03,414.2,65.2,585.0,49.92,1,Apollo,1000,4.0,2500,1832.77,436.0,1.0,1.740000000000009,0.004200869145340438,17.46217286335113
559,1832.77,436.0,63.8,570.0,51.03,1,Apollo,1000,4.0,2500,1833.44,450.0,1.0,0.6700000000000728,0.001536697247706589,6.521743119266763
560,1833.44,450.0,107.8,304.0,6.13,1,Apollo,1000,4.0,2500,1834.51,574.7,1.0,1.0699999999999363,0.0023777777777776363,10.224444444443836
561,1834.51,574.7,82.9,501.0,28.09,1,Apollo,1000,4.0,2500,1835.04,563.2,1.0,0.5299999999999727,0.0009222202888463072,4.425550722115659
562,1835.04,563.2,87.0,471.0,25.53,1,Apollo,1000,4.0,2500,1836.78,536.9,1.0,1.740000000000009,0.003089488636363652,14.683721590909165
563,1836.78,536.9,66.4,502.0,46.56,1,Apollo,1000,4.0,2500,1837.23,522.0,1.0,0.4500000000000455,0.0008381449059416008,3.895362264854184
564,1837.23,522.0,63.2,590.0,49.98,1,Apollo,1000,4.0,2500,1838.81,445.2,1.0,1.5799999999999272,0.003026819923371508,13.887049808428479
565,1838.81,445.2,61.3,604.0,52.17,1,Apollo,1000,4.0,2500,1839.38,428.1,1.0,0.5700000000001637,0.0012803234501351387,5.4808086253385015
566,1839.38,428.1,61.9,637.0,52.27,1,Apollo,1000,4.0,2500,1840.56,440.0,1.0,1.1799999999998363,0.002756365335201673,11.610913338003527
567,1840.56,440.0,63.0,564.0,49.17,1,Apollo,1000,4.0,2500,1841.13,440.9,1.0,0.5700000000001637,0.0012954545454549175,5.518636363637949
568,1841.13,440.9,63.0,544.0,52.73,1,Apollo,1000,4.0,2500,1842.51,444.6,1.0,1.3799999999998818,0.003129961442503701,13.344903606258779
569,1842.51,444.6,66.4,625.0,48.05,1,Apollo,1000,4.0,2500,1843.03,459.9,1.0,0.5199999999999818,0.0011695906432748128,5.003976608186959
570,1843.03,459.9,62.1,516.0,52.58,1,Apollo,1000,4.0,2500,1844.58,576.4,1.0,1.5499999999999545,0.0033702978908457374,14.625744727114162
571,1844.58,576.4,97.1,318.0,22.12,1,Apollo,1000,4.0,2500,1845.09,410.2,1.0,0.5099999999999909,0.0008848022206800676,4.252005551700133
572,1845.09,410.2,77.1,545.0,42.53,1,Apollo,1000,4.0,2500,1846.64,469.6,1.0,1.550000000000182,0.0037786445636279423,15.646611409070584
573,1846.64,469.6,71.2,621.0,48.0,1,Apollo,1000,4.0,2500,1847.11,488.0,1.0,0.4699999999997999,0.0010008517887559623,4.3821294718891055
574,1847.11,488.0,76.6,531.0,43.17,1,Apollo,1000,4.0,2500,1848.64,498.2,1.0,1.5300000000002,0.0031352459016397542,13.958114754100187
575,1848.64,498.2,70.4,610.0,48.0,1,Apollo,1000,4.0,2500,1849.22,580.6,1.0,0.5799999999999272,0.0011641910879163534,5.230477719790592
576,1849.22,580.6,74.3,597.0,44.57,1,Apollo,1000,4.0,2500,1850.55,575.8,1.0,1.3299999999999272,0.0022907337237339427,11.046834309334566
577,1850.55,575.8,88.9,530.0,32.96,1,Apollo,1000,4.0,2500,1851.13,593.7,1.0,0.5800000000001546,0.0010072941993750516,4.838235498438247
578,1851.13,593.7,82.8,561.0,35.95,1,Apollo,1000,4.0,2500,1852.59,348.1,1.0,1.459999999999809,0.0024591544551116878,11.987886137778457
579,1852.59,348.1,70.0,651.0,49.31,1,Apollo,1000,4.0,2500,1853.36,395.0,1.0,0.7699999999999818,0.002212008043665561,8.61002010916383
580,1853.36,395.0,75.0,411.0,47.28,1,Apollo,1000,4.0,2500,1854.69,650.0,1.0,1.3300000000001546,0.003367088607595328,13.73772151898894
581,1854.69,650.0,78.8,424.0,48.5,1,Apollo,1000,4.0,2500,1855.48,548.8,1.0,0.7899999999999636,0.0012153846153845594,6.1984615384612525
582,1855.48,548.8,77.5,416.0,42.28,1,Apollo,1000,4.0,2500,1856.5,624.7,1.0,1.0199999999999818,0.0018586005830903462,8.726501457725792
583,1856.5,624.7,68.8,501.0,48.35,1,Apollo,1000,4.0,2500,1857.13,378.6,1.0,0.6300000000001091,0.0010084840723549049,5.041210180887699
584,1857.13,378.6,74.2,539.0,44.21,1,Apollo,1000,4.0,2500,1858.65,418.4,1.0,1.5199999999999818,0.004014791336502857,16.11697834125707
585,1858.65,418.4,73.7,497.0,45.24,1,Apollo,1000,4.0,2500,1859.04,401.0,1.0,0.38999999999987267,0.0009321223709365981,3.890305927340986
586,1859.04,401.0,70.7,558.0,47.73,1,Apollo,1000,4.0,2500,1860.55,421.6,1.0,1.509999999999991,0.0037655860349126956,15.453965087281702
587,1860.55,421.6,69.2,550.0,49.62,1,Apollo,1000,4.0,2500,1861.09,400.7,1.0,0.5399999999999636,0.0012808349146109193,5.362087286527153
588,1861.09,400.7,66.7,484.0,49.54,1,Apollo,1000,4.0,2500,1862.54,346.2,1.0,1.4500000000000455,0.0036186673321688184,14.846668330422228
589,1862.54,346.2,66.4,591.0,52.84,1,Apollo,1000,4.0,2500,1863.02,301.5,1.0,0.4800000000000182,0.001386481802426396,5.386204506066063
590,1863.02,301.5,65.1,460.0,57.83,1,Apollo,1000,4.0,2500,1864.61,269.7,1.0,1.5899999999999181,0.005273631840795748,19.544079601989043
591,1864.61,269.7,74.5,467.0,35.42,1,Apollo,1000,4.0,2500,1865.09,302.3,1.0,0.4800000000000182,0.0017797552836485656,6.369388209121487
592,1865.09,302.3,58.8,460.0,61.23,1,Apollo,1000,4.0,2500,1866.51,259.3,1.0,1.4200000000000728,0.004697320542507683,17.423301356269498
593,1866.51,259.3,95.1,433.0,27.71,1,Apollo,1000,4.0,2500,1867.19,263.0,1.0,0.6800000000000637,0.0026224450443504193,9.276112610876304
594,1867.19,263.0,101.8,253.0,16.49,1,Apollo,1000,4.0,2500,1868.64,340.0,1.0,1.4500000000000455,0.005513307984791048,19.5832699619778
595,1868.64,340.0,95.2,397.0,20.32,1,Apollo,1000,4.0,2500,1869.19,419.2,1.0,0.5499999999999545,0.0016176470588233956,6.2441176470583075
596,1869.19,419.2,90.7,395.0,25.17,1,Apollo,1000,4.0,2500,1870.59,449.4,1.0,1.3999999999998636,0.0033396946564882243,13.949236641220015
597,1870.59,449.4,89.4,470.0,31.59,1,Apollo,1000,4.0,2500,1871.44,466.8,1.0,0.8500000000001364,0.0018914107699157464,8.128526924789913
598,1871.44,466.8,87.2,516.0,30.39,1,Apollo,1000,4.0,2500,1872.62,488.8,1.0,1.1799999999998363,0.0025278491859465216,11.03962296486565
599,1872.62,488.8,75.1,624.0,38.64,1,Apollo,1000,4.0,2500,1873.11,551.6,1.0,0.4900000000000091,0.0010024549918167126,4.466137479541818
600,1873.11,551.6,72.6,555.0,44.8,1,Apollo,1000,4.0,2500,1874.62,506.9,1.0,1.509999999999991,0.0027374909354604617,12.883727338651118
601,1874.62,506.9,71.6,723.0,47.0,1,Apollo,1000,4.0,2500,1875.1,546.3,1.0,0.4800000000000182,0.0009469323337936837,4.2873308344842815
602,1875.1,546.3,72.4,565.0,45.13,1,Apollo,1000,4.0,2500,1876.57,585.8,1.0,1.4700000000000273,0.0026908292147172384,12.607073036793206
603,1876.57,585.8,73.3,653.0,43.57,1,Apollo,1000,4.0,2500,1877.05,579.1,1.0,0.4800000000000182,0.0008193922840560229,3.96848071014013
604,1877.05,579.1,79.9,546.0,37.75,1,Apollo,1000,4.0,2500,1878.85,621.9,1.0,1.7999999999999545,0.003108271455707053,14.970678639267451
605,1878.85,621.9,80.4,517.0,37.76,1,Apollo,1000,4.0,2500,1879.37,624.8,1.0,0.5199999999999818,0.0008361472905611543,4.170368226402813
606,1879.37,624.8,80.9,519.0,36.15,1,Apollo,1000,4.0,2500,1880.67,632.2,1.0,1.300000000000182,0.0020806658130604707,10.401664532651903
607,1880.67,632.2,82.7,491.0,34.88,1,Apollo,1000,4.0,2500,1881.38,566.2,1.0,0.7100000000000364,0.0011230623220500418,5.64765580512525
608,1881.38,566.2,68.5,585.0,48.78,1,Apollo,1000,4.0,2500,1882.57,438.0,1.0,1.1899999999998272,0.0021017308371597087,10.014327092898581
609,1882.57,438.0,65.9,573.0,46.24,1,Apollo,1000,4.0,2500,1883.08,429.9,1.0,0.5099999999999909,0.001164383561643815,4.950958904109501
610,1883.08,429.9,68.1,614.0,51.28,1,Apollo,1000,4.0,2500,1884.68,384.1,1.0,1.6000000000001364,0.003721795766457633,15.704489416144629
611,1884.68,384.1,63.4,660.0,55.02,1,Apollo,1000,4.0,2500,1885.2,328.6,1.0,0.5199999999999818,0.0013538141109085701,5.464535277271352
612,1885.2,328.6,64.2,519.0,51.97,1,Apollo,1000,4.0,2500,1886.57,411.8,1.0,1.3699999999998909,0.004169202678027665,15.903006695068726
613,1886.57,411.8,64.2,463.0,48.46,1,Apollo,1000,4.0,2500,1887.1,402.4,1.0,0.5299999999999727,0.001287032540067928,5.33758135016971
614,1887.1,402.4,69.1,545.0,47.28,1,Apollo,1000,4.0,2500,1888.7,400.7,1.0,1.6000000000001364,0.003976143141153421,16.340357852884097
615,1888.7,400.7,64.3,509.0,51.69,1,Apollo,1000,4.0,2500,1889.08,355.5,1.0,0.37999999999988177,0.0009483404042921931,3.89085101073001
616,1889.08,355.5,61.8,632.0,52.94,1,Apollo,1000,4.0,2500,1890.54,211.2,1.0,1.4600000000000364,0.004106891701828513,16.10722925457143
617,1890.54,211.2,63.0,512.0,50.32,1,Apollo,1000,4.0,2500,1891.1,198.8,1.0,0.5599999999999454,0.002651515151514893,8.868787878787014
618,1891.1,198.8,68.5,578.0,49.56,1,Apollo,1000,4.0,2500,1892.65,198.5,1.0,1.550000000000182,0.007796780684105542,25.691951710264583
619,1892.65,198.5,67.4,530.0,49.0,1,Apollo,1000,4.0,2500,1893.14,198.2,1.0,0.4900000000000091,0.002468513853904328,8.131284634760856
620,1893.14,198.2,65.5,531.0,51.34,1,Apollo,1000,4.0,2500,1894.54,295.4,1.0,1.3999999999998636,0.007063572149343409,23.258930373357977
621,1894.54,295.4,71.0,495.0,44.97,1,Apollo,1000,4.0,2500,1895.02,315.4,1.0,0.4800000000000182,0.00162491536899126,5.982288422478223
622,1895.02,315.4,67.4,531.0,48.79,1,Apollo,1000,4.0,2500,1896.72,166.5,1.0,1.7000000000000455,0.005389980976537874,20.274952441344865
623,1896.72,166.5,77.1,445.0,39.61,1,Apollo,1000,4.0,2500,1897.2,243.4,1.0,0.4800000000000182,0.002882882882882992,9.127207207207555
624,1897.2,243.4,68.3,565.0,48.77,1,Apollo,1000,4.0,2500,1898.59,353.3,1.0,1.3899999999998727,0.005710764174198326,19.836910435495305
625,1898.59,353.3,69.5,647.0,47.39,1,Apollo,1000,4.0,2500,1899.1,351.5,1.0,0.5099999999999909,0.0014435324087177777,5.6488310217944075
626,1899.1,351.5,69.2,566.0,47.34,1,Apollo,1000,4.0,2500,1900.61,379.8,1.0,1.509999999999991,0.0042958748221905855,16.77968705547643
627,1900.61,379.8,65.7,663.0,50.68,1,Apollo,1000,4.0,2500,1901.1,384.7,1.0,0.4900000000000091,0.0012901527119536836,5.185381779884246
628,1901.1,384.7,67.8,652.0,48.62,1,Apollo,1000,4.0,2500,1902.89,530.6,1.0,1.790000000000191,0.004652976345204552,18.792440863012146
629,1902.89,530.6,71.7,464.0,43.94,1,Apollo,1000,4.0,2500,1903.09,547.5,1.0,0.1999999999998181,0.0003769317753483191,1.7423294383700703
630,1903.09,547.5,63.6,514.0,51.42,1,Apollo,1000,4.0,2500,1904.87,503.4,1.0,1.7799999999999727,0.0032511415525113656,15.247853881278305
631,1904.87,503.4,73.2,465.0,39.31,1,Apollo,1000,4.0,2500,1905.08,523.5,1.0,0.21000000000003638,0.00041716328963058483,1.8829082240766075
632,1905.08,523.5,64.0,497.0,51.4,1,Apollo,1000,4.0,2500,1906.87,502.6,1.0,1.7899999999999636,0.0034192932187200836,15.708233046800064
633,1906.87,502.6,68.1,542.0,47.78,1,Apollo,1000,4.0,2500,1907.09,534.3,1.0,0.22000000000002728,0.00043772383605258117,1.9743095901315622
634,1907.09,534.3,67.3,486.0,47.4,1,Apollo,1000,4.0,2500,1908.51,386.6,1.0,1.4200000000000728,0.002657682949653889,12.324207374135014
635,1908.51,386.6,65.2,595.0,49.0,1,Apollo,1000,4.0,2500,1909.08,416.2,1.0,0.5699999999999363,0.0014743921365751068,5.965980341437513
636,1909.08,416.2,66.3,612.0,48.63,1,Apollo,1000,4.0,2500,1910.55,406.9,1.0,1.4700000000000273,0.003531955790485409,14.709889476213633
637,1910.55,406.9,66.8,601.0,49.37,1,Apollo,1000,4.0,2500,1911.26,395.9,1.0,0.7100000000000364,0.0017449004669452847,7.202251167363357
638,1911.26,395.9,65.6,669.0,51.11,1,Apollo,1000,4.0,2500,1912.63,545.3,1.0,1.3700000000001182,0.003460469815610302,14.131174539026228
639,1912.63,545.3,66.1,631.0,48.69,1,Apollo,1000,4.0,2500,1913.08,506.3,1.0,0.4499999999998181,0.0008252338162476033,3.8630845406182805
640,1913.08,506.3,68.8,618.0,47.24,1,Apollo,1000,4.0,2500,1914.63,499.6,1.0,1.550000000000182,0.003061426031997199,13.853565079993725
641,1914.63,499.6,64.4,635.0,49.83,1,Apollo,1000,4.0,2500,1915.26,457.3,1.0,0.6299999999998818,0.0012610088070453998,5.672522017613026
642,1915.26,457.3,63.9,589.0,52.24,1,Apollo,1000,4.0,2500,1916.6,395.3,1.0,1.3399999999999181,0.0029302427290617055,12.685606822653936
643,1916.6,395.3,67.4,654.0,50.62,1,Apollo,1000,4.0,2500,1917.16,395.9,1.0,0.5600000000001728,0.0014166455856316033,5.7816139640797
644,1917.16,395.9,64.7,639.0,51.9,1,Apollo,1000,4.0,2500,1918.62,481.6,1.0,1.459999999999809,0.00368779994948171,15.059499873703512
645,1918.62,481.6,63.8,614.0,50.56,1,Apollo,1000,4.0,2500,1919.01,467.8,1.0,0.39000000000010004,0.0008098006644520349,3.5845016611304876
646,1919.01,467.8,64.7,712.0,51.28,1,Apollo,1000,4.0,2500,1920.77,445.2,1.0,1.759999999999991,0.0037622915775972444,16.445728943993075
647,1920.77,445.2,63.5,591.0,48.77,1,Apollo,1000,4.0,2500,1921.11,426.6,1.0,0.33999999999991815,0.0007637017070977497,3.2692542677440466
648,1921.11,426.6,61.5,696.0,53.26,1,Apollo,1000,4.0,2500,1922.53,353.5,1.0,1.4200000000000728,0.00332864510079717,14.001612751993216
649,1922.53,353.5,64.6,685.0,50.69,1,Apollo,1000,4.0,2500,1923.01,356.2,1.0,0.4800000000000182,0.0013578500707214093,5.314625176803596
650,1923.01,356.2,63.9,576.0,52.41,1,Apollo,1000,4.0,2500,1924.54,339.6,1.0,1.5299999999999727,0.0042953396967994745,16.858349241998575
651,1924.54,339.6,65.3,613.0,49.63,1,Apollo,1000,4.0,2500,1925.01,376.8,1.0,0.4700000000000273,0.0013839811542992557,5.339952885748248
652,1925.01,376.8,67.1,611.0,47.51,1,Apollo,1000,4.0,2500,1926.74,311.0,1.0,1.7300000000000182,0.004591295116772872,18.398237791932253
653,1926.74,311.0,68.7,576.0,47.22,1,Apollo,1000,4.0,2500,1927.12,332.1,1.0,0.37999999999988177,0.0012218649517681086,4.574662379419799
654,1927.12,332.1,67.7,559.0,46.16,1,Apollo,1000,4.0,2500,1928.63,342.5,1.0,1.5100000000002183,0.004546823246010895,17.40705811502811
655,1928.63,342.5,64.0,473.0,50.38,1,Apollo,1000,4.0,2500,1929.06,345.1,1.0,0.4299999999998363,0.0012554744525542665,4.858686131385012
656,1929.06,345.1,66.3,554.0,51.89,1,Apollo,1000,4.0,2500,1930.52,363.9,1.0,1.4600000000000364,0.004230657780353626,16.41664445088421
657,1930.52,363.9,64.0,534.0,51.07,1,Apollo,1000,4.0,2500,1931.32,342.6,1.0,0.7999999999999545,0.002198406155537111,8.696015388842596
658,1931.32,342.6,67.1,473.0,48.52,1,Apollo,1000,4.0,2500,1932.61,427.6,1.0,1.2899999999999636,0.0037653239929946397,14.573309982486453
659,1932.61,427.6,65.9,585.0,47.21,1,Apollo,1000,4.0,2500,1933.03,424.8,1.0,0.42000000000007276,0.0009822263797943703,4.135565949486217
660,1933.03,424.8,63.1,614.0,49.74,1,Apollo,1000,4.0,2500,1934.76,435.9,1.0,1.7300000000000182,0.004072504708097971,17.101261770245003
661,1934.76,435.9,66.2,613.0,49.75,1,Apollo,1000,4.0,2500,1935.15,430.7,1.0,0.39000000000010004,0.0008947006194083507,3.796751548521277
662,1935.15,430.7,66.7,702.0,49.92,1,Apollo,1000,4.0,2500,1936.53,471.1,1.0,1.3799999999998818,0.0032040863710236403,13.530215927558627
663,1936.53,471.1,63.8,582.0,50.72,1,Apollo,1000,4.0,2500,1937.15,408.2,1.0,0.6200000000001182,0.0013160687752072134,5.770171938018507
664,1937.15,408.2,66.7,570.0,49.55,1,Apollo,1000,4.0,2500,1938.65,225.7,1.0,1.5,0.0036746692797648213,15.186673199412054
665,1938.65,225.7,102.3,312.0,21.18,1,Apollo,1000,4.0,2500,1939.05,281.3,1.0,0.3999999999998636,0.00177226406734543,6.030660168363029
666,1939.05,281.3,104.4,400.0,19.59,1,Apollo,1000,4.0,2500,1940.21,315.2,1.0,1.1600000000000819,0.004123711340206476,14.949278350516519
667,1940.21,315.2,117.9,142.0,4.57,1,Apollo,1000,4.0,2500,1940.75,542.4,1.0,0.5399999999999636,0.0017131979695430319,6.442994923857434
668,1940.75,542.4,93.1,316.0,19.92,1,Apollo,1000,4.0,2500,1942.64,547.6,1.0,1.8900000000001,0.0034845132743364683,16.271283185841572
669,1942.64,547.6,70.2,570.0,54.29,1,Apollo,1000,4.0,2500,1943.24,453.8,1.0,0.599999999999909,0.001095690284879308,5.139225712197906
670,1943.24,453.8,75.3,540.0,55.25,1,Apollo,1000,4.0,2500,1944.69,497.1,1.0,1.4500000000000455,0.0031952401939181253,13.788100484795496
671,1944.69,497.1,73.4,417.0,49.88,1,Apollo,1000,4.0,2500,1945.04,438.4,1.0,0.34999999999990905,0.000704083685374993,3.1602092134371187
672,1945.04,438.4,77.9,561.0,51.39,1,Apollo,1000,4.0,2500,1946.78,382.6,1.0,1.740000000000009,0.0039689781021898015,16.88244525547454
673,1946.78,382.6,72.7,662.0,49.92,1,Apollo,1000,4.0,2500,1947.14,396.0,1.0,0.36000000000012733,0.0009409304756929621,3.7923261892329148
674,1947.14,396.0,75.4,678.0,50.55,1,Apollo,1000,4.0,2500,1948.53,375.2,1.0,1.3899999999998727,0.0035101010101006884,14.335252525251212
675,1948.53,375.2,76.7,528.0,46.63,1,Apollo,1000,4.0,2500,1949.28,421.5,1.0,0.75,0.0019989339019189766,7.997334754797442
676,1949.28,421.5,75.2,524.0,49.15,1,Apollo,1000,4.0,2500,1950.53,385.3,1.0,1.25,0.0029655990510083037,12.413997627520759
677,1950.53,385.3,75.3,559.0,49.65,1,Apollo,1000,4.0,2500,1951.19,321.9,1.0,0.6600000000000819,0.0017129509473139937,6.922377368285312
678,1951.19,321.9,69.5,537.0,54.62,1,Apollo,1000,4.0,2500,1952.51,297.0,1.0,1.3199999999999363,0.0041006523765142475,15.531630941285364
679,1952.51,297.0,71.9,531.0,50.17,1,Apollo,1000,4.0,2500,1953.22,290.0,1.0,0.7100000000000364,0.002390572390572513,8.816430976431427
680,1953.22,290.0,76.1,433.0,49.37,1,Apollo,1000,4.0,2500,1954.57,369.1,1.0,1.349999999999909,0.00465517241379279,17.03793103448161
681,1954.57,369.1,73.2,508.0,49.28,1,Apollo,1000,4.0,2500,1955.09,365.0,1.0,0.5199999999999818,0.0014088322947710154,5.602080736927466
682,1955.09,365.0,73.9,573.0,48.54,1,Apollo,1000,4.0,2500,1956.64,394.1,1.0,1.550000000000182,0.004246575342466252,16.81643835616636
683,1956.64,394.1,74.2,578.0,48.97,1,Apollo,1000,4.0,2500,1957.15,397.2,1.0,0.5099999999999909,0.0012940877949758711,5.275219487439641
684,1957.15,397.2,71.6,555.0,49.74,1,Apollo,1000,4.0,2500,1958.51,376.9,1.0,1.3599999999999,0.0034239677744206947,13.999919436051336
685,1958.51,376.9,74.4,588.0,50.09,1,Apollo,1000,4.0,2500,1959.06,374.1,1.0,0.5499999999999545,0.0014592730167151886,5.848182541787789
686,1959.06,374.1,75.4,677.0,47.42,1,Apollo,1000,4.0,2500,1960.59,385.2,1.0,1.5299999999999727,0.004089815557337537,16.344538893343735
687,1960.59,385.2,72.4,624.0,47.83,1,Apollo,1000,4.0,2500,1961.14,412.3,1.0,0.5500000000001819,0.0014278296988582085,5.769574247146249
688,1961.14,412.3,71.6,593.0,50.68,1,Apollo,1000,4.0,2500,1962.69,438.2,1.0,1.5499999999999545,0.0037593984962404916,15.598496240601047
689,1962.69,438.2,78.6,469.0,43.88,1,Apollo,1000,4.0,2500,1963.16,548.2,1.0,0.4700000000000273,0.0010725696029211028,4.5614240073028665
690,1963.16,548.2,75.4,475.0,47.06,1,Apollo,1000,4.0,2500,1964.59,435.1,1.0,1.4299999999998363,0.00260853703028062,12.241342575700894
691,1964.59,435.1,75.9,572.0,47.8,1,Apollo,1000,4.0,2500,1965.03,529.0,1.0,0.44000000000005457,0.0010112617789015273,4.288154447254037
692,1965.03,529.0,73.6,491.0,49.77,1,Apollo,1000,4.0,2500,1966.55,384.5,1.0,1.5199999999999818,0.0028733459357277538,13.263364839319312
693,1966.55,384.5,72.1,518.0,49.87,1,Apollo,1000,4.0,2500,1967.08,398.4,1.0,0.5299999999999727,0.0013784135240571462,5.566033810142756
694,1967.08,398.4,71.0,595.0,51.06,1,Apollo,1000,4.0,2500,1968.57,433.8,1.0,1.490000000000009,0.003739959839357453,15.309899598393669
695,1968.57,433.8,70.9,564.0,50.53,1,Apollo,1000,4.0,2500,1969.12,405.1,1.0,0.5499999999999545,0.0012678653757490883,5.369663439372539
696,1969.12,405.1,71.3,571.0,48.98,1,Apollo,1000,4.0,2500,1970.54,401.8,1.0,1.4200000000000728,0.0035053073315232603,14.443268328808442
697,1970.54,401.8,70.4,562.0,51.7,1,Apollo,1000,4.0,2500,1971.01,354.2,1.0,0.4700000000000273,0.0011697361871578578,4.804340467894754
698,1971.01,354.2,64.7,581.0,54.53,1,Apollo,1000,4.0,2500,1972.52,213.7,1.0,1.509999999999991,0.004263128176171629,16.697820440429034
699,1972.52,213.7,71.7,477.0,51.27,1,Apollo,1000,4.0,2500,1973.07,232.7,1.0,0.5499999999999545,0.0025737014506315137,8.634253626578602
700,1973.07,232.7,69.7,493.0,51.78,1,Apollo,1000,4.0,2500,1974.52,200.5,1.0,1.4500000000000455,0.0062311989686293315,21.37799742157351
701,1974.52,200.5,68.4,507.0,54.52,1,Apollo,1000,4.0,2500,1975.05,219.7,1.0,0.5299999999999727,0.0026433915211968714,8.728478802992068
702,1975.05,219.7,69.5,308.0,49.66,1,Apollo,1000,4.0,2500,1976.51,166.1,1.0,1.4600000000000364,0.006645425580336989,22.453563950842618
703,1976.51,166.1,74.8,416.0,46.2,1,Apollo,1000,4.0,2500,1977.16,186.0,1.0,0.650000000000091,0.003913305237809097,12.383263094523105
704,1977.16,186.0,82.0,257.0,38.37,1,Apollo,1000,4.0,2500,1978.61,318.9,1.0,1.449999999999818,0.007795698924730205,25.289247311824784
705,1978.61,318.9,72.8,538.0,48.43,1,Apollo,1000,4.0,2500,1979.14,332.6,1.0,0.5300000000002001,0.0016619629978055822,6.274907494514756
706,1979.14,332.6,71.3,414.0,50.14,1,Apollo,1000,4.0,2500,1980.65,328.5,1.0,1.509999999999991,0.004539987973541764,17.389969933854374
707,1980.65,328.5,73.9,320.0,47.66,1,Apollo,1000,4.0,2500,1981.14,344.8,1.0,0.4900000000000091,0.0014916286149163139,5.689071537290821
708,1981.14,344.8,71.3,526.0,51.56,1,Apollo,1000,4.0,2500,1982.69,342.2,1.0,1.5499999999999545,0.00449535962877017,17.43839907192524
709,1982.69,342.2,75.1,397.0,50.6,1,Apollo,1000,4.0,2500,1983.02,340.4,1.0,0.32999999999992724,0.00096434833430721,3.730870835767734
710,1983.02,340.4,74.1,470.0,49.33,1,Apollo,1000,4.0,2500,1984.64,351.9,1.0,1.6200000000001182,0.004759106933020324,18.377767332551283
711,1984.64,351.9,73.0,487.0,50.91,1,Apollo,1000,4.0,2500,1985.16,347.7,1.0,0.5199999999999818,0.001477692526285825,5.7742313157144896
712,1985.16,347.7,72.9,487.0,48.35,1,Apollo,1000,4.0,2500,1986.53,355.2,1.0,1.3699999999998909,0.003940178314638743,15.330445786596421
713,1986.53,355.2,65.8,453.0,54.38,1,Apollo,1000,4.0,2500,1987.26,300.9,1.0,0.7300000000000182,0.002055180180180231,8.057950450450651
714,1987.26,300.9,75.5,439.0,47.54,1,Apollo,1000,4.0,2500,1988.55,346.2,1.0,1.2899999999999636,0.004287138584247138,15.877846460617699
715,1988.55,346.2,73.3,466.0,47.15,1,Apollo,1000,4.0,2500,1989.3,384.4,1.0,0.75,0.0021663778162911615,8.415944540727903
716,1989.3,384.4,73.7,407.0,47.52,1,Apollo,1000,4.0,2500,1990.72,383.1,1.0,1.4200000000000728,0.003694068678460127,14.915171696150608
717,1990.72,383.1,70.4,592.0,50.16,1,Apollo,1000,4.0,2500,1991.06,403.9,1.0,0.33999999999991815,0.0008874967371441351,3.57874184286001
718,1991.06,403.9,71.8,473.0,48.28,1,Apollo,1000,4.0,2500,1992.64,389.1,1.0,1.5800000000001546,0.003911859371131851,16.099648427830246
719,1992.64,389.1,70.1,541.0,50.21,1,Apollo,1000,4.0,2500,1993.15,387.4,1.0,0.5099999999999909,0.0013107170393214876,5.316792598303683
720,1993.15,387.4,72.8,539.0,49.14,1,Apollo,1000,4.0,2500,1994.53,384.1,1.0,1.3799999999998818,0.0035622096024777537,14.42552400619391
721,1994.53,384.1,71.5,522.0,50.41,1,Apollo,1000,4.0,2500,1995.01,389.4,1.0,0.4800000000000182,0.0012496745639156944,5.044186409789308
722,1995.01,389.4,70.0,509.0,50.13,1,Apollo,1000,4.0,2500,1996.75,356.4,1.0,1.740000000000009,0.004468412942989238,18.13103235747313
723,1996.75,356.4,71.8,503.0,48.31,1,Apollo,1000,4.0,2500,1997.32,351.1,1.0,0.5699999999999363,0.0015993265993264206,6.278316498315797
724,1997.32,351.1,73.5,493.0,47.2,1,Apollo,1000,4.0,2500,1998.74,386.9,1.0,1.4200000000000728,0.004044431785816214,15.791079464540827
725,1998.74,386.9,69.8,518.0,51.22,1,Apollo,1000,4.0,2500,1999.1,389.7,1.0,0.35999999999989996,0.0009304729904365469,3.7661824760909672
726,1999.1,389.7,72.2,439.0,47.94,1,Apollo,1000,4.0,2500,2000.62,471.4,1.0,1.5199999999999818,0.0039004362329996965,15.831090582499169
727,2000.62,471.4,68.2,404.0,52.89,1,Apollo,1000,4.0,2500,2001.33,375.6,1.0,0.7100000000000364,0.001506151887993289,6.605379719983368
728,2001.33,375.6,72.1,379.0,46.46,1,Apollo,1000,4.0,2500,2002.63,390.4,1.0,1.300000000000182,0.0034611288604903673,13.852822151226645
729,2002.63,390.4,69.9,368.0,51.06,1,Apollo,1000,4.0,2500,2003.04,435.4,1.0,0.4099999999998545,0.001050204918032414,4.265512295080454
730,2003.04,435.4,70.5,480.0,49.5,1,Apollo,1000,4.0,2500,2004.59,554.3,1.0,1.5499999999999545,0.0035599448782727486,15.09986219568169
731,2004.59,554.3,67.8,481.0,48.96,1,Apollo,1000,4.0,2500,2005.14,433.7,1.0,0.5500000000001819,0.0009922424679779578,4.680606169945622
732,2005.14,433.7,67.1,540.0,52.72,1,Apollo,1000,4.0,2500,2006.65,434.9,1.0,1.509999999999991,0.0034816693566981577,14.744173391745358
733,2006.65,434.9,71.2,387.0,48.92,1,Apollo,1000,4.0,2500,2007.03,444.1,1.0,0.37999999999988177,0.0008737640836971299,3.7044102092423516
734,2007.03,444.1,68.5,438.0,51.96,1,Apollo,1000,4.0,2500,2008.66,417.1,1.0,1.6300000000001091,0.0036703445170009207,15.695861292502737
735,2008.66,417.1,66.7,527.0,52.72,1,Apollo,1000,4.0,2500,2009.01,414.6,1.0,0.34999999999990905,0.0008391273075998778,3.497818268999331
736,2009.01,414.6,71.6,498.0,48.19,1,Apollo,1000,4.0,2500,2010.56,365.6,1.0,1.5499999999999545,0.003738543174143643,15.546357935358925
737,2010.56,365.6,69.9,387.0,51.03,1,Apollo,1000,4.0,2500,2011.07,355.3,1.0,0.5099999999999909,0.0013949671772428634,5.527417943107122
738,2011.07,355.3,69.9,375.0,49.87,1,Apollo,1000,4.0,2500,2012.59,465.7,1.0,1.5199999999999818,0.004278074866310109,16.7751871657752
739,2012.59,465.7,66.8,510.0,51.57,1,Apollo,1000,4.0,2500,2013.12,454.1,1.0,0.5299999999999727,0.0011380717199913522,4.965179299978271
740,2013.12,454.1,68.9,477.0,50.52,1,Apollo,1000,4.0,2500,2014.62,421.3,1.0,1.5,0.00330323717242898,14.25809293107245
741,2014.62,421.3,70.9,551.0,48.95,1,Apollo,1000,4.0,2500,2015.02,474.2,1.0,0.40000000000009095,0.0009494422027061261,3.973605506765679
742,2015.02,474.2,68.3,500.0,50.03,1,Apollo,1000,4.0,2500,2016.63,424.0,1.0,1.6100000000001273,0.0033951919021512596,14.927979755378658
743,2016.63,424.0,69.0,537.0,48.95,1,Apollo,1000,4.0,2500,2017.23,447.9,1.0,0.599999999999909,0.001415094339622427,5.937735849055704
744,2017.23,447.9,69.8,559.0,50.17,1,Apollo,1000,4.0,2500,2018.5,164.5,1.0,1.2699999999999818,0.002835454342487122,12.168635856217731
745,2018.5,164.5,69.1,466.0,50.82,1,Apollo,1000,4.0,2500,2019.0,174.5,1.0,0.5,0.00303951367781155,9.598784194528875
746,2019.0,174.5,69.3,472.0,49.17,1,Apollo,1000,4.0,2500,2020.53,165.6,1.0,1.5299999999999727,0.008767908309455431,28.03977077363847
747,2020.53,165.6,70.9,525.0,51.4,1,Apollo,1000,4.0,2500,2021.03,165.7,1.0,0.5,0.0030193236714975845,9.548309178743962
748,2021.03,165.7,69.6,463.0,49.25,1,Apollo,1000,4.0,2500,2022.52,180.8,1.0,1.490000000000009,0.008992154496077303,28.440386240193295
749,2022.52,180.8,71.1,412.0,48.37,1,Apollo,1000,4.0,2500,2023.04,177.2,1.0,0.5199999999999818,0.0028761061946901644,9.27026548672534
750,2023.04,177.2,68.3,368.0,50.07,1,Apollo,1000,4.0,2500,2024.58,158.5,1.0,1.5399999999999636,0.008690744920993023,27.886862302482413
751,2024.58,158.5,72.2,434.0,44.81,1,Apollo,1000,4.0,2500,2025.06,189.6,1.0,0.4800000000000182,0.0030283911671925437,9.490977917981432
752,2025.06,189.6,65.4,341.0,52.29,1,Apollo,1000,4.0,2500,2026.51,175.7,1.0,1.4500000000000455,0.0076476793248947544,24.919198312237068
753,2026.51,175.7,69.7,454.0,49.06,1,Apollo,1000,4.0,2500,2027.05,159.0,1.0,0.5399999999999636,0.0030734206033008744,9.843551508252041
754,2027.05,159.0,69.7,408.0,49.87,1,Apollo,1000,4.0,2500,2028.5,159.2,1.0,1.4500000000000455,0.009119496855346198,28.598742138365676
755,2028.5,159.2,68.2,351.0,50.06,1,Apollo,1000,4.0,2500,2029.05,143.9,1.0,0.5499999999999545,0.003454773869346448,10.836934673365938
756,2029.05,143.9,72.2,334.0,46.97,1,Apollo,1000,4.0,2500,2030.5,142.5,1.0,1.4500000000000455,0.010076441973593088,30.991104933982903
757,2030.5,142.5,69.4,324.0,49.31,1,Apollo,1000,4.0,2500,2031.02,147.3,1.0,0.5199999999999818,0.0036491228070174167,11.202807017543469
758,2031.02,147.3,66.1,378.0,51.65,1,Apollo,1000,4.0,2500,2032.6,193.5,1.0,1.5799999999999272,0.010726408689748317,33.1360217243705
759,2032.6,193.5,82.4,197.0,39.89,1,Apollo,1000,4.0,2500,2033.08,417.4,1.0,0.4800000000000182,0.002480620155038854,8.121550387597207
760,2033.08,417.4,78.4,402.0,45.26,1,Apollo,1000,4.0,2500,2034.89,265.1,1.0,1.8100000000001728,0.004336367992333908,18.08091998083546
761,2034.89,265.1,75.8,400.0,48.97,1,Apollo,1000,4.0,2500,2036.69,509.3,1.0,1.7999999999999545,0.006789890607317821,24.17472651829437
762,2036.69,509.3,67.7,380.0,55.92,1,Apollo,1000,4.0,2500,2037.08,338.8,1.0,0.38999999999987267,0.0007657569212642306,3.474392303160067
763,2037.08,338.8,74.5,297.0,48.65,1,Apollo,1000,4.0,2500,2038.59,368.6,1.0,1.509999999999991,0.004456906729633976,17.182266824084905
764,2038.59,368.6,68.5,459.0,52.56,1,Apollo,1000,4.0,2500,2039.01,348.6,1.0,0.42000000000007276,0.0011394465545308539,4.528616386327426
765,2039.01,348.6,73.5,533.0,51.1,1,Apollo,1000,4.0,2500,2040.51,383.4,1.0,1.5,0.004302925989672977,16.757314974182442
766,2040.51,383.4,68.6,354.0,56.25,1,Apollo,1000,4.0,2500,2041.1,284.8,1.0,0.5899999999999181,0.0015388628064682268,6.20715701617024
767,2041.1,284.8,76.0,459.0,48.8,1,Apollo,1000,4.0,2500,2042.61,328.7,1.0,1.509999999999991,0.005301966292134799,19.29491573033696
768,2042.61,328.7,72.7,268.0,49.67,1,Apollo,1000,4.0,2500,2043.07,374.6,1.0,0.4600000000000364,0.0013994523881960342,5.338630970490231
769,2043.07,374.6,78.8,447.0,47.78,1,Apollo,1000,4.0,2500,2044.67,498.7,1.0,1.6000000000001364,0.004271222637480343,17.078056593701405
770,2044.67,498.7,77.1,457.0,46.86,1,Apollo,1000,4.0,2500,2045.12,465.9,1.0,0.4499999999998181,0.0009023460998592704,4.055865249647448
771,2045.12,465.9,73.5,547.0,48.31,1,Apollo,1000,4.0,2500,2046.74,477.1,1.0,1.6200000000001182,0.003477141017385959,15.172852543465371
772,2046.74,477.1,75.1,621.0,48.26,1,Apollo,1000,4.0,2500,2047.33,464.7,1.0,0.5899999999999181,0.001236638021378994,5.451595053447157
773,2047.33,464.7,73.1,543.0,50.62,1,Apollo,1000,4.0,2500,2048.57,442.8,1.0,1.2400000000002365,0.0026683882074461725,11.630970518616376
774,2048.57,442.8,64.6,590.0,54.25,1,Apollo,1000,4.0,2500,2049.14,455.4,1.0,0.569999999999709,0.001287262872628069,5.498157181569008
775,2049.14,455.4,75.0,484.0,48.6,1,Apollo,1000,4.0,2500,2050.79,460.4,1.0,1.650000000000091,0.0036231884057973014,15.657971014493617
776,2050.79,460.4,72.8,508.0,50.16,1,Apollo,1000,4.0,2500,2051.21,446.5,1.0,0.42000000000007276,0.0009122502172025907,3.960625543006768
777,2051.21,446.5,76.1,588.0,49.28,1,Apollo,1000,4.0,2500,2052.6,417.5,1.0,1.3899999999998727,0.0031131019036951236,13.3427547592373
778,2052.6,417.5,70.8,489.0,50.62,1,Apollo,1000,4.0,2500,2053.19,416.1,1.0,0.5900000000001455,0.0014131736526949593,5.892934131737981
779,2053.19,416.1,73.1,503.0,49.68,1,Apollo,1000,4.0,2500,2054.58,384.1,1.0,1.3899999999998727,0.003340543138668283,13.911357846670198
780,2054.58,384.1,73.4,444.0,48.42,1,Apollo,1000,4.0,2500,2055.17,402.7,1.0,0.5900000000001455,0.0015360583181466948,6.20014579536732
781,2055.17,402.7,74.7,479.0,49.21,1,Apollo,1000,4.0,2500,2056.6,397.8,1.0,1.4299999999998363,0.0035510305438287465,14.597576359571212
782,2056.6,397.8,75.2,486.0,50.39,1,Apollo,1000,4.0,2500,2057.14,384.0,1.0,0.5399999999999636,0.0013574660633483247,5.553665158370666
783,2057.14,384.0,73.6,443.0,49.6,1,Apollo,1000,4.0,2500,2058.67,386.7,1.0,1.5300000000002,0.0039843750000005205,16.0809375000021
784,2058.67,386.7,74.1,458.0,46.99,1,Apollo,1000,4.0,2500,2059.05,427.7,1.0,0.38000000000010914,0.0009826739074220562,3.976684768555577
785,2059.05,427.7,74.0,496.0,50.05,1,Apollo,1000,4.0,2500,2060.59,416.0,1.0,1.5399999999999636,0.003600654664484367,15.161636661210771
786,2060.59,416.0,73.3,473.0,49.4,1,Apollo,1000,4.0,2500,2061.17,431.0,1.0,0.5799999999999272,0.0013942307692305944,5.805576923076195
787,2061.17,431.0,74.3,483.0,48.08,1,Apollo,1000,4.0,2500,2062.59,494.6,1.0,1.4200000000000728,0.003294663573086016,13.91665893271533
788,2062.59,494.6,68.5,451.0,49.77,1,Apollo,1000,4.0,2500,2063.16,460.1,1.0,0.569999999999709,0.0011524464213499978,5.16111605337383
789,2063.16,460.1,73.1,400.0,50.25,1,Apollo,1000,4.0,2500,2064.5,418.3,1.0,1.3400000000001455,0.0029124103455773643,12.641025863943993
790,2064.5,418.3,71.7,524.0,51.02,1,Apollo,1000,4.0,2500,2065.06,403.9,1.0,0.5599999999999454,0.0013387520918000128,5.586880229499814
791,2065.06,403.9,76.1,489.0,47.63,1,Apollo,1000,4.0,2500,2066.66,363.2,1.0,1.599999999999909,0.003961376578360756,16.303441445901527
792,2066.66,363.2,73.0,479.0,49.34,1,Apollo,1000,4.0,2500,2067.03,396.8,1.0,0.3700000000003456,0.001018722466961304,4.026806167404642
793,2067.03,396.8,71.1,510.0,49.79,1,Apollo,1000,4.0,2500,2068.63,399.6,1.0,1.599999999999909,0.0040322580645159,16.480645161289388
794,2068.63,399.6,73.0,439.0,49.69,1,Apollo,1000,4.0,2500,2069.01,406.7,1.0,0.38000000000010914,0.000950950950951224,3.8973773773784965
795,2069.01,406.7,72.8,415.0,48.75,1,Apollo,1000,4.0,2500,2070.59,392.4,1.0,1.5799999999999272,0.00388492746496171,16.032318662403984
796,2070.59,392.4,73.5,424.0,49.44,1,Apollo,1000,4.0,2500,2071.14,395.1,1.0,0.5499999999997272,0.0014016309887862567,5.704077471964551
797,2071.14,395.1,70.5,480.0,51.95,1,Apollo,1000,4.0,2500,2072.59,414.4,1.0,1.4500000000002728,0.0036699569729189392,14.97489243229844
798,2072.59,414.4,71.2,453.0,50.25,1,Apollo,1000,4.0,2500,2073.09,407.8,1.0,0.5,0.0012065637065637065,5.0164092664092665
799,2073.09,407.8,67.7,440.0,54.89,1,Apollo,1000,4.0,2500,2074.87,408.6,1.0,1.7799999999997453,0.0043648847474245835,18.032211868560438
800,2074.87,408.6,74.5,563.0,48.13,1,Apollo,1000,4.0,2500,2075.07,432.7,1.0,0.20000000000027285,0.0004894762604020382,2.023690651006187
801,2075.07,432.7,72.3,490.0,48.13,1,Apollo,1000,4.0,2500,2076.53,465.0,1.0,1.4600000000000364,0.0033741622371158686,14.275405592789816
802,2076.53,465.0,72.2,432.0,49.72,1,Apollo,1000,4.0,2500,2077.08,412.3,1.0,0.5499999999997272,0.0011827956989241444,5.156989247309269
803,2077.08,412.3,68.8,517.0,53.1,1,Apollo,1000,4.0,2500,2078.52,408.9,1.0,1.4400000000000546,0.0034926024739268847,14.49150618481743
804,2078.52,408.9,72.6,628.0,51.86,1,Apollo,1000,4.0,2500,2079.09,420.5,1.0,0.5700000000001637,0.001393983859134663,5.764959647837312
805,2079.09,420.5,71.7,559.0,49.2,1,Apollo,1000,4.0,2500,2080.67,560.7,1.0,1.5799999999999272,0.0037574316290129067,15.713579072531976
806,2080.67,560.7,66.6,497.0,52.85,1,Apollo,1000,4.0,2500,2081.03,447.5,1.0,0.36000000000012733,0.0006420545746390713,3.0451364365981877
807,2081.03,447.5,69.6,467.0,52.81,1,Apollo,1000,4.0,2500,2082.53,410.5,1.0,1.5,0.00335195530726257,14.379888268156426
808,2082.53,410.5,75.3,486.0,50.79,1,Apollo,1000,4.0,2500,2083.09,434.2,1.0,0.5599999999999454,0.001364190012180135,5.650475030450119
809,2083.09,434.2,70.8,543.0,50.85,1,Apollo,1000,4.0,2500,2084.58,432.7,1.0,1.4899999999997817,0.00343159834177748,14.538995854442827
810,2084.58,432.7,74.0,482.0,50.51,1,Apollo,1000,4.0,2500,2085.1,395.7,1.0,0.5199999999999818,0.0012017564132192785,5.0843910330481235
811,2085.1,395.7,73.3,498.0,47.47,1,Apollo,1000,4.0,2500,2086.66,399.6,1.0,1.5599999999999454,0.003942380591356951,16.09595147839216
812,2086.66,399.6,68.4,518.0,51.18,1,Apollo,1000,4.0,2500,2087.03,384.8,1.0,0.3700000000003456,0.0009259259259267906,3.794814814818359
813,2087.03,384.8,72.1,516.0,50.21,1,Apollo,1000,4.0,2500,2088.61,420.6,1.0,1.5799999999999272,0.004106029106028916,16.585072765072
814,2088.61,420.6,70.5,543.0,50.11,1,Apollo,1000,4.0,2500,2089.02,419.1,1.0,0.4099999999998545,0.0009747979077504861,4.076994769375633
815,2089.02,419.1,71.8,490.0,48.59,1,Apollo,1000,4.0,2500,2090.75,380.8,1.0,1.7300000000000182,0.0041278931042711,17.239732760677825
816,2090.75,380.8,63.7,500.0,54.97,1,Apollo,1000,4.0,2500,2091.09,331.5,1.0,0.3400000000001455,0.0008928571428575249,3.5921428571443945
817,2091.09,331.5,66.4,433.0,55.67,1,Apollo,1000,4.0,2500,2092.52,171.3,1.0,1.4299999999998363,0.004313725490195585,16.50431372548831
818,2092.52,171.3,72.3,437.0,49.22,1,Apollo,1000,4.0,2500,2093.09,188.4,1.0,0.5700000000001637,0.0033274956217172426,10.59873905429376
819,2093.09,188.4,68.6,453.0,50.39,1,Apollo,1000,4.0,2500,2094.53,171.1,1.0,1.4400000000000546,0.007643312101911118,24.868280254778014
820,2094.53,171.1,70.2,353.0,48.28,1,Apollo,1000,4.0,2500,2095.06,183.4,1.0,0.5299999999997453,0.0030976037405011417,9.864009351251836
821,2095.06,183.4,66.4,505.0,52.96,1,Apollo,1000,4.0,2500,2096.5,150.9,1.0,1.4400000000000546,0.007851690294438683,25.389225736096925
822,2096.5,150.9,66.7,483.0,51.07,1,Apollo,1000,4.0,2500,2097.04,144.3,1.0,0.5399999999999636,0.0035785288270375323,11.106322067593686
823,2097.04,144.3,69.9,344.0,48.77,1,Apollo,1000,4.0,2500,2098.51,150.2,1.0,1.4700000000002547,0.010187110187111952,31.3477754677809
824,2098.51,150.2,70.0,322.0,51.72,1,Apollo,1000,4.0,2500,2099.05,140.2,1.0,0.5399999999999636,0.0035952063914777873,11.148015978694323
825,2099.05,140.2,69.6,284.0,50.21,1,Apollo,1000,4.0,2500,2100.55,149.1,1.0,1.5,0.010699001426533525,32.74750356633381
826,2100.55,149.1,70.0,374.0,49.33,1,Apollo,1000,4.0,2500,2101.03,151.0,1.0,0.4800000000000182,0.003219315895372355,9.968289738430961
827,2101.03,151.0,70.5,412.0,50.7,1,Apollo,1000,4.0,2500,2102.51,144.4,1.0,1.4800000000000182,0.009801324503311379,30.42331125827852
828,2102.51,144.4,71.8,420.0,49.35,1,Apollo,1000,4.0,2500,2103.05,144.1,1.0,0.5399999999999636,0.003739612188365399,11.509030470913352
829,2103.05,144.1,66.6,313.0,50.73,1,Apollo,1000,4.0,2500,2104.56,125.8,1.0,1.5099999999997635,0.01047883414295464,32.23708535738565
830,2104.56,125.8,69.3,144.0,48.78,1,Apollo,1000,4.0,2500,2105.0,126.3,1.0,0.44000000000005457,0.0034976152623215784,10.504038155804164
831,2105.0,126.3,66.4,267.0,51.73,1,Apollo,1000,4.0,2500,2106.64,215.3,1.0,1.6399999999998727,0.012984956452888937,39.022391132221834
832,2106.64,215.3,64.7,292.0,54.92,1,Apollo,1000,4.0,2500,2107.04,176.6,1.0,0.40000000000009095,0.0018578727357180256,6.244681839295428
833,2107.04,176.6,69.1,228.0,50.48,1,Apollo,1000,4.0,2500,2108.51,176.8,1.0,1.4700000000002547,0.008323895809740967,26.689739524353435
834,2108.51,176.8,64.3,356.0,53.69,1,Apollo,1000,4.0,2500,2109.13,219.9,1.0,0.6199999999998909,0.0035067873303161246,11.246968325789876
835,2109.13,219.9,84.2,188.0,36.48,1,Apollo,1000,4.0,2500,2112.62,237.2,1.0,3.4899999999997817,0.015870850386538342,53.63712596634498
836,2112.62,237.2,71.0,168.0,48.21,1,Apollo,1000,4.0,2500,2113.22,270.8,1.0,0.599999999999909,0.002529510961213782,8.723777403034092
837,2113.22,270.8,69.5,163.0,49.91,1,Apollo,1000,4.0,2500,2114.61,266.6,1.0,1.3900000000003274,0.005132939438701357,18.3923485967547
838,2114.61,266.6,71.8,91.0,48.87,1,Apollo,1000,4.0,2500,2115.08,297.5,1.0,0.4699999999997999,0.0017629407351830453,6.2873518379568125
839,2115.08,297.5,71.6,153.0,47.15,1,Apollo,1000,4.0,2500,2116.51,344.6,1.0,1.430000000000291,0.0048067226890766085,17.736806722692684
840,2116.51,344.6,71.1,255.0,49.34,1,Apollo,1000,4.0,2500,2117.17,385.5,1.0,0.6599999999998545,0.0019152640742886083,7.428160185720939
841,2117.17,385.5,71.7,162.0,47.09,1,Apollo,1000,4.0,2500,2118.57,355.6,1.0,1.400000000000091,0.003631647211413984,14.679118028535324
842,2118.57,355.6,66.7,259.0,49.6,1,Apollo,1000,4.0,2500,2119.06,337.9,1.0,0.4899999999997817,0.001377952755904898,5.404881889761372
843,2119.06,337.9,70.6,192.0,48.39,1,Apollo,1000,4.0,2500,2120.68,350.8,1.0,1.6199999999998909,0.004794317845516102,18.465794613789818
844,2120.68,350.8,70.3,134.0,48.7,1,Apollo,1000,4.0,2500,2121.12,357.9,1.0,0.44000000000005457,0.001254275940707111,4.895689851767996
845,2121.12,357.9,69.5,293.0,51.43,1,Apollo,1000,4.0,2500,2122.66,402.2,1.0,1.5399999999999636,0.004302877898854327,16.917194747135675
846,2122.66,402.2,66.9,264.0,49.85,1,Apollo,1000,4.0,2500,2123.16,392.9,1.0,0.5,0.0012431626056688214,5.107906514172054
847,2123.16,392.9,67.9,228.0,49.65,1,Apollo,1000,4.0,2500,2124.55,379.0,1.0,1.3900000000003274,0.003537795876814272,14.40448969203699
848,2124.55,379.0,70.2,162.0,49.35,1,Apollo,1000,4.0,2500,2125.24,369.7,1.0,0.6899999999995998,0.001820580474932981,7.311451187330852
849,2125.24,369.7,67.6,175.0,49.14,1,Apollo,1000,4.0,2500,2126.02,166.8,1.0,0.7800000000002001,0.00210981877197782,8.39454692994535
850,2126.02,166.8,110.0,429.0,26.96,1,Apollo,1000,4.0,2500,2127.21,187.0,1.0,1.1900000000000546,0.007134292565947569,22.59573141486914
851,2127.21,187.0,94.9,533.0,33.09,1,Apollo,1000,4.0,2500,2128.55,279.2,1.0,1.3400000000001455,0.007165775401070297,23.274438502676325
852,2128.55,279.2,91.5,506.0,36.19,1,Apollo,1000,4.0,2500,2129.03,616.9,1.0,0.4800000000000182,0.001719197707736455,6.21799426934121
853,2129.03,616.9,83.8,701.0,43.53,1,Apollo,1000,4.0,2500,2130.27,530.8,1.0,1.2399999999997817,0.0020100502512559277,9.985125628138945
854,2130.27,530.8,81.4,740.0,46.52,1,Apollo,1000,4.0,2500,2131.23,544.2,1.0,0.9600000000000364,0.0018085908063301365,8.361477015825486
855,2131.23,544.2,78.8,825.0,48.29,1,Apollo,1000,4.0,2500,2132.26,580.9,1.0,1.0300000000002,0.0018926865123120179,8.851716280780845
856,2132.26,580.9,77.8,736.0,49.5,1,Apollo,1000,4.0,2500,2133.48,543.2,1.0,1.2199999999998,0.0021001893613355137,10.130473403337984
857,2133.48,543.2,79.3,771.0,48.2,1,Apollo,1000,4.0,2500,2134.7,538.1,1.0,1.2199999999998,0.002245949926361929,10.494874815904023
858,2134.7,538.1,77.8,731.0,49.51,1,Apollo,1000,4.0,2500,2135.18,567.4,1.0,0.4800000000000182,0.0008920275041814126,4.150068760453604
859,2135.18,567.4,76.2,794.0,50.44,1,Apollo,1000,4.0,2500,2136.54,458.8,1.0,1.3600000000001273,0.0023968981318296216,11.432245329574563
860,2136.54,458.8,77.2,726.0,50.27,1,Apollo,1000,4.0,2500,2137.01,568.9,1.0,0.47000000000025466,0.001024411508283031,4.441028770708596
861,2137.01,568.9,77.5,682.0,48.58,1,Apollo,1000,4.0,2500,2138.66,521.4,1.0,1.6499999999996362,0.0029003339778513556,13.850834944626934
862,2138.66,521.4,77.7,820.0,48.98,1,Apollo,1000,4.0,2500,2139.16,569.4,1.0,0.5,0.0009589566551591868,4.397391637897967
863,2139.16,569.4,80.5,855.0,48.43,1,Apollo,1000,4.0,2500,2140.54,522.5,1.0,1.3800000000001091,0.002423603793466999,11.579009483667935
864,2140.54,522.5,72.0,654.0,58.36,1,Apollo,1000,4.0,2500,2141.0,331.1,1.0,0.4600000000000364,0.0008803827751196868,4.040956937799363
865,2141.0,331.1,71.6,572.0,51.83,1,Apollo,1000,4.0,2500,2142.51,577.9,1.0,1.5100000000002183,0.004560555723347079,17.44138930836857
866,2142.51,577.9,78.0,529.0,47.15,1,Apollo,1000,4.0,2500,2143.09,383.6,1.0,0.5799999999999272,0.001003633846686152,4.82908461671509
867,2143.09,383.6,78.4,598.0,49.16,1,Apollo,1000,4.0,2500,2144.57,417.2,1.0,1.4800000000000182,0.0038581856100104745,15.565464025026259
868,2144.57,417.2,72.1,562.0,55.73,1,Apollo,1000,4.0,2500,2145.08,298.6,1.0,0.5099999999997635,0.0012224352828374007,5.096088207092556
869,2145.08,298.6,77.4,618.0,49.48,1,Apollo,1000,4.0,2500,2146.55,371.8,1.0,1.4700000000002547,0.004922973878098642,18.187434695247624
870,2146.55,371.8,75.1,694.0,49.4,1,Apollo,1000,4.0,2500,2147.03,362.8,1.0,0.4800000000000182,0.0012910166756321092,5.147541689080345
871,2147.03,362.8,77.8,680.0,49.42,1,Apollo,1000,4.0,2500,2148.61,340.8,1.0,1.5799999999999272,0.0043550165380372855,17.20754134509292
872,2148.61,340.8,72.7,542.0,56.13,1,Apollo,1000,4.0,2500,2149.02,296.5,1.0,0.4099999999998545,0.0012030516431920611,4.64762910797957
873,2149.02,296.5,75.4,655.0,53.55,1,Apollo,1000,4.0,2500,2150.72,415.2,1.0,1.699999999999818,0.005733558178751494,21.133895446878007
874,2150.72,415.2,100.8,596.0,27.71,1,Apollo,1000,4.0,2500,2152.57,358.1,1.0,1.8500000000003638,0.004455684007708006,18.539210019271472
875,2152.57,358.1,78.7,647.0,46.42,1,Apollo,1000,4.0,2500,2153.15,429.9,1.0,0.5799999999999272,0.0016196593130408466,6.3691482826018255
876,2153.15,429.9,76.2,662.0,50.05,1,Apollo,1000,4.0,2500,2154.58,405.7,1.0,1.4299999999998363,0.0033263549662708456,14.03588741567646
877,2154.58,405.7,77.0,646.0,50.44,1,Apollo,1000,4.0,2500,2155.31,422.3,1.0,0.7300000000000182,0.0017993591323638607,7.418397830909725
878,2155.31,422.3,75.5,630.0,50.2,1,Apollo,1000,4.0,2500,2156.79,410.0,1.0,1.4800000000000182,0.003504617570447592,14.681543926119053
879,2156.79,410.0,75.1,706.0,51.11,1,Apollo,1000,4.0,2500,2157.29,392.4,1.0,0.5,0.0012195121951219512,5.048780487804878
880,2157.29,392.4,75.1,663.0,53.85,1,Apollo,1000,4.0,2500,2158.52,405.0,1.0,1.2300000000000182,0.003134556574923594,12.756391437309059
881,2158.52,405.0,81.5,608.0,47.3,1,Apollo,1000,4.0,2500,2159.09,397.7,1.0,0.5700000000001637,0.0014074074074078118,5.798518518520185
882,2159.09,397.7,75.9,673.0,49.26,1,Apollo,1000,4.0,2500,2160.6,390.5,1.0,1.5099999999997635,0.003796831782750223,15.53207945687461
883,2160.6,390.5,78.1,732.0,48.41,1,Apollo,1000,4.0,2500,2161.34,414.9,1.0,0.7400000000002365,0.001895006402049261,7.697516005124098
884,2161.34,414.9,76.6,608.0,50.04,1,Apollo,1000,4.0,2500,2162.54,423.9,1.0,1.199999999999818,0.002892263195950393,12.030657989875255
885,2162.54,423.9,74.9,633.0,49.28,1,Apollo,1000,4.0,2500,2163.1,426.1,1.0,0.5599999999999454,0.0013210662892190268,5.5426657230473495
886,2163.1,426.1,74.9,611.0,50.96,1,Apollo,1000,4.0,2500,2164.57,416.1,1.0,1.4700000000002547,0.003449894390988629,14.50473597747259
887,2164.57,416.1,75.0,567.0,50.46,1,Apollo,1000,4.0,2500,2165.32,444.5,1.0,0.75,0.0018024513338139867,7.506128334534967
888,2165.32,444.5,75.7,623.0,49.18,1,Apollo,1000,4.0,2500,2166.64,395.4,1.0,1.319999999999709,0.0029696287963997953,12.704071990998324
889,2166.64,395.4,78.2,513.0,50.3,1,Apollo,1000,4.0,2500,2167.08,345.8,1.0,0.44000000000005457,0.00111279716742553,4.541992918564043
890,2167.08,345.8,73.5,557.0,53.34,1,Apollo,1000,4.0,2500,2168.59,342.3,1.0,1.5100000000002183,0.004366685945633945,16.956714864085733
891,2168.59,342.3,76.6,524.0,50.08,1,Apollo,1000,4.0,2500,2169.16,407.3,1.0,0.569999999999709,0.001665205959683637,6.443014899207928
892,2169.16,407.3,75.5,571.0,48.06,1,Apollo,1000,4.0,2500,2170.59,420.3,1.0,1.430000000000291,0.003510925607660916,14.497314019153455
893,2170.59,420.3,76.9,580.0,49.73,1,Apollo,1000,4.0,2500,2171.1,387.4,1.0,0.5099999999997635,0.0012134189864376958,5.073547466093293
894,2171.1,387.4,74.4,623.0,50.18,1,Apollo,1000,4.0,2500,2172.64,347.1,1.0,1.5399999999999636,0.003975219411460928,16.098048528652175
895,2172.64,347.1,73.2,370.0,52.64,1,Apollo,1000,4.0,2500,2173.05,320.5,1.0,0.41000000000030923,0.0011812157879582518,4.593039469896866
