,BIT_DEPTH,cost
0,745.01,5002.28
1,746.53,0.7350000000000136
2,747.02,2.2799999999999727
3,748.54,0.7200000000000273
4,749.02,2.2649999999999864
5,750.53,0.7949999999999591
6,751.06,2.3250000000001023
7,752.61,0.6749999999998977
8,753.06,2.205000000000041
9,754.53,0.7350000000000136
10,755.02,2.2649999999999864
11,756.53,0.7350000000000136
12,757.02,2.25
13,758.52,0.855000000000075
14,759.09,2.189999999999884
15,760.55,0.7350000000000136
16,761.04,2.25
17,762.54,0.7350000000000136
18,763.03,2.310000000000116
19,764.57,0.7799999999999727
20,765.09,2.1299999999999386
21,766.51,0.855000000000075
22,767.08,2.1749999999998977
23,768.53,0.7200000000000273
24,769.01,2.25
25,770.51,0.855000000000075
26,771.08,2.1749999999998977
27,772.53,0.7949999999999591
28,773.06,2.2350000000000136
29,774.55,0.7200000000000273
30,775.03,2.294999999999959
31,776.56,0.7200000000000273
32,777.04,2.2950000000001296
33,778.57,0.644999999999925
34,779.0,2.339999999999918
35,780.56,0.6600000000000819
36,781.0,2.2799999999999727
37,782.52,0.7649999999999864
38,783.03,2.2799999999999727
39,784.55,0.7350000000000136
40,785.04,2.205000000000041
41,786.51,0.7799999999999727
42,787.03,2.205000000000041
43,788.5,0.8249999999999318
44,789.05,2.25
45,790.55,0.7200000000000273
46,791.03,2.294999999999959
47,792.56,0.6900000000000546
48,793.02,2.3099999999999454
49,794.56,0.7800000000001432
50,795.08,2.25
51,796.58,0.7799999999999727
52,797.1,2.2350000000000136
53,798.59,0.7049999999998704
54,799.06,2.2950000000001296
55,800.59,0.6299999999999386
56,801.01,2.3099999999999454
57,802.55,0.7050000000000409
58,803.02,2.2350000000000136
59,804.51,0.8400000000000887
60,805.07,2.2199999999998568
61,806.55,0.6900000000000546
62,807.01,2.3700000000000614
63,808.59,0.7049999999998704
64,809.06,2.205000000000041
65,810.53,0.7050000000000409
66,811.0,2.2799999999999727
67,812.52,0.8400000000000887
68,813.08,2.144999999999925
69,814.51,1.0350000000000819
70,815.2,1.9949999999998909
71,816.53,0.8250000000001023
72,817.08,2.189999999999884
73,818.54,0.7649999999999864
74,819.05,2.1900000000000546
75,820.51,0.7649999999999864
76,821.02,2.3250000000001023
77,822.57,0.689999999999884
78,823.03,2.2799999999999727
79,824.55,0.7649999999999864
80,825.06,2.25
81,826.56,0.75
82,827.06,2.1900000000000546
83,828.52,0.7200000000000273
84,829.0,2.339999999999918
85,830.56,0.6750000000000682
86,831.01,2.25
87,832.51,0.9599999999999795
88,833.15,2.0400000000000205
89,834.51,0.8099999999999454
90,835.05,2.310000000000116
91,836.59,0.6749999999998977
92,837.04,2.2350000000000136
93,838.53,0.75
94,839.03,2.2649999999999864
95,840.54,0.7200000000000273
96,841.02,2.3250000000001023
97,842.57,0.7349999999998431
98,843.06,2.175000000000068
99,844.51,0.855000000000075
100,845.08,2.1749999999998977
101,846.53,0.7200000000000273
102,847.01,2.3099999999999454
103,848.55,0.8700000000000614
104,849.13,2.0849999999999795
105,850.52,0.75
106,851.02,2.2200000000000273
107,852.5,0.7949999999999591
108,853.03,2.205000000000041
109,854.5,0.8099999999999454
110,855.04,2.2350000000000136
111,856.53,0.7949999999999591
112,857.06,2.205000000000041
113,858.53,0.7200000000000273
114,859.01,2.2799999999999727
115,860.53,0.7200000000000273
116,861.01,2.25
117,862.51,0.855000000000075
118,863.08,2.144999999999925
119,864.51,0.7649999999999864
120,865.02,2.2350000000000136
121,866.51,0.75
122,867.01,2.2649999999999864
123,868.52,0.7350000000000136
124,869.01,2.2799999999999727
125,870.53,0.7799999999999727
126,871.05,2.2200000000000273
127,872.53,0.75
128,873.03,2.2350000000000136
129,874.52,0.7799999999999727
130,875.04,2.205000000000041
131,876.51,0.7649999999999864
132,877.02,2.2649999999999864
133,878.53,0.7200000000000273
134,879.01,2.294999999999959
135,880.54,0.7350000000000136
136,881.03,2.2350000000000136
137,882.52,0.75
138,883.02,2.2350000000000136
139,884.51,0.75
140,885.01,2.294999999999959
141,886.54,0.7350000000000136
142,887.03,2.2200000000000273
143,888.51,0.7649999999999864
144,889.02,2.2649999999999864
145,890.53,0.7050000000000409
146,891.0,2.3099999999999454
147,892.54,0.6900000000000546
148,893.0,2.3099999999999454
149,894.54,0.6900000000000546
150,895.0,2.444999999999993
151,896.63,0.5550000000000068
152,897.0,2.444999999999993
153,898.63,0.6900000000000546
154,899.09,2.1299999999999386
155,900.51,0.75
156,901.01,2.25
157,902.51,0.7799999999999727
158,903.03,2.2649999999999864
159,904.54,0.6900000000000546
160,905.0,2.324999999999932
161,906.55,0.6750000000000682
162,907.0,2.3099999999999454
163,908.54,0.8250000000001023
164,909.09,2.2799999999999727
165,910.61,0.6299999999999386
166,911.03,2.25
167,912.53,0.7350000000000136
168,913.02,2.2799999999999727
169,914.54,0.7350000000000136
170,915.03,2.3400000000000887
171,916.59,0.75
172,917.09,2.1599999999999113
173,918.53,0.75
174,919.03,2.4599999999999795
175,920.67,0.5400000000000205
176,921.03,2.25
177,922.53,0.7949999999999591
178,923.06,2.2200000000000273
179,924.54,0.810000000000116
180,925.08,2.2350000000000136
181,926.57,0.8099999999999454
182,927.11,2.2649999999999864
183,928.62,0.6599999999999113
184,929.06,2.160000000000082
185,930.5,0.8099999999999454
186,931.04,2.25
187,932.54,0.6900000000000546
188,933.0,2.294999999999959
189,934.53,0.7350000000000136
190,935.02,2.294999999999959
191,936.55,0.810000000000116
192,937.09,2.2350000000000136
193,938.58,0.644999999999925
194,939.01,2.3700000000000614
195,940.59,0.644999999999925
196,941.02,2.3700000000000614
197,942.6,0.644999999999925
198,943.03,2.310000000000116
199,944.57,0.7199999999998568
200,945.05,2.2200000000000273
201,946.53,0.7949999999999591
202,947.06,2.205000000000041
203,948.53,0.7050000000000409
204,949.0,2.430000000000007
205,950.62,0.644999999999925
206,951.05,2.2950000000001296
207,952.58,0.644999999999925
208,953.01,2.2799999999999727
209,954.53,0.7200000000000273
210,955.01,2.3400000000000887
211,956.57,0.7199999999998568
212,957.05,2.205000000000041
213,958.52,0.9300000000000068
214,959.14,2.1450000000000955
215,960.57,0.7049999999998704
216,961.04,2.205000000000041
217,962.51,0.7799999999999727
218,963.03,2.3250000000001023
219,964.58,0.644999999999925
220,965.01,2.4150000000000205
221,966.62,0.7050000000000409
222,967.09,2.2049999999998704
223,968.56,0.7050000000000409
224,969.03,2.3250000000001023
225,970.58,0.644999999999925
226,971.01,2.25
227,972.51,0.8400000000000887
228,973.07,2.25
229,974.57,0.689999999999884
230,975.03,2.3250000000001023
231,976.58,0.644999999999925
232,977.01,2.2350000000000136
233,978.5,0.8399999999999181
234,979.06,2.175000000000068
235,980.51,0.7649999999999864
236,981.02,2.2350000000000136
237,982.51,0.7799999999999727
238,983.03,2.3700000000000614
239,984.61,0.6299999999999386
240,985.03,2.310000000000116
241,986.57,0.689999999999884
242,987.03,2.2200000000000273
243,988.51,0.8400000000000887
244,989.07,2.1599999999999113
245,990.51,0.7649999999999864
246,991.02,2.2350000000000136
247,992.51,6.764999999999986
248,997.02,2.2799999999999727
249,998.54,0.7799999999999727
250,999.06,23.190000000000055
251,1014.52,0.8250000000001023
252,1015.07,5.25
253,1018.57,0.8699999999998909
254,1019.15,2.099999999999966
255,1020.55,0.7200000000000273
256,1021.03,3.044999999999959
257,1023.06,2.175000000000068
258,1024.51,0.8099999999999454
259,1025.05,2.2350000000000136
260,1026.54,0.7200000000000273
261,1027.02,2.339999999999918
262,1028.58,0.7200000000000273
263,1029.06,2.160000000000082
264,1030.5,0.8699999999998909
265,1031.08,2.1900000000000546
266,1032.54,0.7200000000000273
267,1033.02,2.2350000000000136
268,1034.51,0.7799999999999727
269,1035.03,2.294999999999959
270,1036.56,0.7350000000000136
271,1037.05,2.2799999999999727
272,1038.57,0.6450000000000955
273,1039.0,2.3549999999999045
274,1040.57,0.7200000000000273
275,1041.05,2.205000000000041
276,1042.52,0.7350000000000136
277,1043.01,2.339999999999918
278,1044.57,0.7200000000000273
279,1045.05,2.205000000000041
280,1046.52,0.8549999999999045
281,1047.09,2.2350000000000136
282,1048.58,0.6450000000000955
283,1049.01,2.294999999999959
284,1050.54,0.7799999999999727
285,1051.06,2.2799999999999727
286,1052.58,0.7050000000000409
287,1053.05,2.1900000000000546
288,1054.51,0.8549999999999045
289,1055.08,2.340000000000259
290,1056.64,0.5699999999998226
291,1057.02,2.2649999999999864
292,1058.53,0.7799999999999727
293,1059.05,2.1900000000000546
294,1060.51,0.7799999999999727
295,1061.03,2.324999999999932
296,1062.58,0.6450000000000955
297,1063.01,2.25
298,1064.51,0.8399999999999181
299,1065.07,2.2350000000000136
300,1066.56,0.7050000000000409
301,1067.03,2.2350000000000136
302,1068.52,0.7949999999999591
303,1069.05,2.205000000000041
304,1070.52,0.7649999999999864
305,1071.03,2.2350000000000136
306,1072.52,0.7649999999999864
307,1073.03,2.25
308,1074.53,0.7649999999999864
309,1075.04,2.2350000000000136
310,1076.53,0.8399999999999181
311,1077.09,2.160000000000082
312,1078.53,0.8249999999999318
313,1079.08,2.160000000000082
314,1080.52,0.7649999999999864
315,1081.03,2.2350000000000136
316,1082.52,0.8399999999999181
317,1083.08,2.205000000000041
318,1084.55,0.7350000000000136
319,1085.04,2.2200000000000273
320,1086.52,0.75
321,1087.02,2.2649999999999864
322,1088.53,0.7649999999999864
323,1089.04,2.3099999999999454
324,1090.58,0.75
325,1091.08,2.1450000000000955
326,1092.51,0.7649999999999864
327,1093.02,2.324999999999932
328,1094.57,0.6750000000000682
329,1095.02,2.294999999999959
330,1096.55,0.75
331,1097.05,2.1900000000000546
332,1098.51,0.75
333,1099.01,2.324999999999932
334,1100.56,0.6900000000000546
335,1101.02,2.25
336,1102.52,0.75
337,1103.02,2.25
338,1104.52,0.75
339,1105.02,2.25
340,1106.52,0.8099999999999454
341,1107.06,2.2350000000000136
342,1108.55,0.8099999999999454
343,1109.09,3.120000000000232
344,1111.17,2.1149999999997817
345,1112.58,0.7200000000000273
346,1113.06,2.175000000000068
347,1114.51,0.8699999999998909
348,1115.09,2.175000000000068
349,1116.54,0.7200000000000273
350,1117.02,2.3099999999999454
351,1118.56,0.7200000000000273
352,1119.04,2.25
353,1120.54,0.7200000000000273
354,1121.02,2.2200000000000273
355,1122.5,0.9450000000001637
356,1123.13,2.084999999999809
357,1124.52,0.7799999999999727
358,1125.04,2.3099999999999454
359,1126.58,0.6300000000001091
360,1127.0,2.324999999999932
361,1128.55,0.7050000000000409
362,1129.02,3.074999999999932
363,1131.07,2.1450000000000955
364,1132.5,0.9299999999998363
365,1133.12,2.0700000000001637
366,1134.5,0.8699999999998909
367,1135.08,2.1450000000000955
368,1136.51,0.8549999999999045
369,1137.08,2.1450000000000955
370,1138.51,0.7799999999999727
371,1139.03,2.25
372,1140.53,0.7200000000000273
373,1141.01,2.25
374,1142.51,0.8549999999999045
375,1143.08,2.1450000000000955
376,1144.51,0.8399999999999181
377,1145.07,2.205000000000041
378,1146.54,0.7200000000000273
379,1147.02,2.324999999999932
380,1148.57,0.7200000000000273
381,1149.05,2.205000000000041
382,1150.52,0.8399999999999181
383,1151.08,2.8950000000000955
384,1153.01,2.324999999999932
385,1154.56,0.7050000000000409
386,1155.03,2.25
387,1156.53,0.915000000000191
388,1157.14,2.174999999999727
389,1158.59,0.7050000000000409
390,1159.06,2.175000000000068
391,1160.51,0.8399999999999181
392,1161.07,2.175000000000068
393,1162.52,0.8399999999999181
394,1163.08,2.160000000000082
395,1164.52,0.8399999999999181
396,1165.08,2.9400000000000546
397,1167.04,3.074999999999932
398,1169.09,2.2200000000000273
399,1170.57,2.925000000000068
400,1172.52,2.9850000000000136
401,1174.51,0.9149999999998499
402,1175.12,2.1450000000000955
403,1176.55,0.6900000000000546
404,1177.01,3.1049999999999045
405,1179.08,2.130000000000109
406,1180.5,0.7649999999999864
407,1181.01,2.2799999999999727
408,1182.53,0.7649999999999864
409,1183.04,2.205000000000041
410,1184.51,0.7649999999999864
411,1185.02,2.25
412,1186.52,0.7649999999999864
413,1187.03,2.339999999999918
414,1188.59,0.6750000000000682
415,1189.04,2.2649999999999864
416,1190.55,0.6900000000000546
417,1191.01,2.25
418,1192.51,3.0149999999999864
419,1194.52,0.8099999999999454
420,1195.06,2.25
421,1196.56,0.6750000000000682
422,1197.01,2.25
423,1198.51,0.8099999999999454
424,1199.05,2.2350000000000136
425,1200.54,0.9000000000002046
426,1201.14,2.129999999999768
427,1202.56,0.6750000000000682
428,1203.01,2.3099999999999454
429,1204.55,0.7350000000000136
430,1205.04,2.205000000000041
431,1206.51,0.8549999999999045
432,1207.08,2.205000000000041
433,1208.55,0.6750000000000682
434,1209.0,2.2649999999999864
435,1210.51,0.8549999999999045
436,1211.08,2.25
437,1212.58,0.7949999999999591
438,1213.11,2.115000000000123
439,1214.52,0.7350000000000136
440,1215.01,2.2649999999999864
441,1216.52,0.7799999999999727
442,1217.04,2.2649999999999864
443,1218.55,0.7200000000000273
444,1219.03,2.25
445,1220.53,0.7200000000000273
446,1221.01,2.3549999999999045
447,1222.58,0.7350000000000136
448,1223.07,2.2350000000000136
449,1224.56,0.7949999999999591
450,1225.09,2.175000000000068
451,1226.54,0.7350000000000136
452,1227.03,2.294999999999959
453,1228.56,0.7200000000000273
454,1229.04,2.294999999999959
455,1230.57,0.7200000000000273
456,1231.05,2.2799999999999727
457,1232.57,0.6600000000000819
458,1233.01,2.2649999999999864
459,1234.52,0.7799999999999727
460,1235.04,2.2350000000000136
461,1236.53,0.7799999999999727
462,1237.05,2.339999999999918
463,1238.61,0.6000000000001364
464,1239.01,2.339999999999918
465,1240.57,0.6450000000000955
466,1241.0,2.324999999999932
467,1242.55,0.7799999999999727
468,1243.07,2.205000000000041
469,1244.54,0.7050000000000409
470,1245.01,2.2649999999999864
471,1246.52,0.7799999999999727
472,1247.04,2.2649999999999864
473,1248.55,0.7649999999999864
474,1249.06,2.25
475,1250.56,0.7200000000000273
476,1251.04,2.3099999999999454
477,1252.58,0.7050000000000409
478,1253.05,2.2649999999999864
479,1254.56,0.7649999999999864
480,1255.07,2.1900000000000546
481,1256.53,0.7050000000000409
482,1257.0,2.3549999999999045
483,1258.57,0.7050000000000409
484,1259.04,2.205000000000041
485,1260.51,0.8249999999999318
486,1261.06,2.1900000000000546
487,1262.52,0.8249999999999318
488,1263.07,2.3550000000002456
489,1264.64,0.6449999999997544
490,1265.07,2.2350000000000136
491,1266.56,0.6900000000000546
492,1267.02,2.3099999999999454
493,1268.56,0.6600000000000819
494,1269.0,2.3099999999999454
495,1270.54,0.75
496,1271.04,2.2200000000000273
497,1272.52,0.7649999999999864
498,1273.03,2.2649999999999864
499,1274.54,0.7649999999999864
500,1275.05,2.2649999999999864
501,1276.56,0.6900000000000546
502,1277.02,2.2649999999999864
503,1278.53,0.8099999999999454
504,1279.07,2.205000000000041
505,1280.54,0.7350000000000136
506,1281.03,2.2649999999999864
507,1282.54,0.75
508,1283.04,2.3099999999999454
509,1284.58,0.6900000000000546
510,1285.04,2.3099999999999454
511,1286.58,0.6300000000001091
512,1287.0,2.25
513,1288.5,0.8549999999999045
514,1289.07,2.175000000000068
515,1290.52,0.7350000000000136
516,1291.01,2.2799999999999727
517,1292.53,0.7949999999999591
518,1293.06,2.1900000000000546
519,1294.52,0.7350000000000136
520,1295.01,2.25
521,1296.51,0.75
522,1297.01,2.2649999999999864
523,1298.52,0.8549999999999045
524,1299.09,2.1450000000000955
525,1300.52,0.7949999999999591
526,1301.05,2.1900000000000546
527,1302.51,0.7949999999999591
528,1303.04,2.3099999999999454
529,1304.58,0.7200000000000273
530,1305.06,2.2649999999999864
531,1306.57,0.6600000000000819
532,1307.01,2.324999999999932
533,1308.56,0.6600000000000819
534,1309.0,2.3099999999999454
535,1310.54,0.7350000000000136
536,1311.03,2.294999999999959
537,1312.56,0.6600000000000819
538,1313.0,2.25
539,1314.5,0.8549999999999045
540,1315.07,2.2200000000000273
541,1316.55,0.7200000000000273
542,1317.03,2.2350000000000136
543,1318.52,0.7799999999999727
544,1319.04,2.294999999999959
545,1320.57,0.7200000000000273
546,1321.05,2.294999999999959
547,1322.58,0.6600000000000819
548,1323.02,2.2799999999999727
549,1324.54,0.7799999999999727
550,1325.06,2.2649999999999864
551,1326.57,0.7200000000000273
552,1327.05,2.2200000000000273
553,1328.53,0.7350000000000136
554,1329.02,2.3099999999999454
555,1330.56,0.7200000000000273
556,1331.04,2.2649999999999864
557,1332.55,0.7200000000000273
558,1333.03,2.25
559,1334.53,0.7200000000000273
560,1335.01,2.324999999999932
561,1336.56,0.7799999999999727
562,1337.08,2.1450000000000955
563,1338.51,0.7649999999999864
564,1339.02,2.2649999999999864
565,1340.53,0.7050000000000409
566,1341.0,2.25
567,1342.5,0.7649999999999864
568,1343.01,2.2649999999999864
569,1344.52,0.8249999999999318
570,1345.07,2.25
571,1346.57,0.6600000000000819
572,1347.01,2.2350000000000136
573,1348.5,0.7649999999999864
574,1349.01,2.25
575,1350.51,0.8099999999999454
576,1351.05,2.25
577,1352.55,0.7649999999999864
578,1353.06,2.2350000000000136
579,1354.55,0.7799999999999727
580,1355.07,2.175000000000068
581,1356.52,0.8099999999999454
582,1357.06,2.2799999999999727
583,1358.58,0.7649999999999864
584,1359.09,2.2649999999999864
585,1360.6,0.7050000000000409
586,1361.07,2.160000000000082
587,1362.51,0.8099999999999454
588,1363.05,2.2799999999999727
589,1364.57,0.75
590,1365.07,2.205000000000041
591,1366.54,0.7050000000000409
592,1367.01,2.2649999999999864
593,1368.52,0.7949999999999591
594,1369.05,2.2649999999999864
595,1370.56,0.7050000000000409
596,1371.03,2.3099999999999454
597,1372.57,0.7050000000000409
598,1373.04,2.1900000000000546
599,1374.5,0.8099999999999454
600,1375.04,2.294999999999959
601,1376.57,0.7050000000000409
602,1377.04,2.25
603,1378.54,0.75
604,1379.04,2.2350000000000136
605,1380.53,0.8099999999999454
606,1381.07,2.175000000000068
607,1382.52,0.7200000000000273
608,1383.0,2.41499999999985
609,1384.61,0.7050000000000409
610,1385.08,2.2350000000000136
611,1386.57,0.7050000000000409
612,1387.04,2.2350000000000136
613,1388.53,0.8849999999998772
614,1389.12,2.1450000000000955
615,1390.55,0.7949999999999591
616,1391.08,2.130000000000109
617,1392.5,0.7949999999999591
618,1393.03,2.2200000000000273
619,1394.51,0.8849999999998772
620,1395.1,2.115000000000123
621,1396.51,0.7799999999999727
622,1397.03,2.2200000000000273
623,1398.51,0.8699999999998909
624,1399.09,2.130000000000109
625,1400.51,0.7350000000000136
626,1401.0,2.3999999999998636
627,1402.6,0.7050000000000409
628,1403.07,2.160000000000082
629,1404.51,0.75
630,1405.01,2.4300000000001774
631,1406.63,0.6749999999997272
632,1407.08,2.130000000000109
633,1408.5,0.8099999999999454
634,1409.04,2.2350000000000136
635,1410.53,0.8249999999999318
636,1411.08,2.205000000000041
637,1412.55,0.7799999999999727
638,1413.07,2.2799999999999727
639,1414.59,0.7799999999999727
640,1415.11,2.1000000000001364
641,1416.51,0.7949999999999591
642,1417.04,2.3549999999999045
643,1418.61,0.6000000000001364
644,1419.01,2.25
645,1420.51,0.8699999999998909
646,1421.09,2.175000000000068
647,1422.54,0.8699999999998909
648,1423.12,5.370000000000232
649,1426.7,0.5999999999997954
650,1427.1,2.25
651,1428.6,0.6000000000001364
652,1429.0,2.339999999999918
653,1430.56,0.6750000000000682
654,1431.01,2.25
655,1432.51,0.8549999999999045
656,1433.08,2.160000000000082
657,1434.52,0.8699999999998909
658,1435.1,2.1450000000000955
659,1436.53,0.7050000000000409
660,1437.0,3.074999999999932
661,1439.05,2.2350000000000136
662,1440.54,0.7649999999999864
663,1441.05,2.3099999999999454
664,1442.59,0.6900000000000546
665,1443.05,2.3099999999999454
666,1444.59,0.6750000000000682
667,1445.04,2.294999999999959
668,1446.57,0.7799999999999727
669,1447.09,2.205000000000041
670,1448.56,0.7799999999999727
671,1449.08,2.205000000000041
672,1450.55,0.6900000000000546
673,1451.01,2.369999999999891
674,1452.59,0.7649999999999864
675,1453.1,2.205000000000041
676,1454.57,0.6750000000000682
677,1455.02,2.384999999999877
678,1456.61,0.6750000000000682
679,1457.06,2.1900000000000546
680,1458.52,0.7799999999999727
681,1459.04,2.2649999999999864
682,1460.55,0.6750000000000682
683,1461.0,2.2799999999999727
684,1462.52,0.9300000000001774
685,1463.14,2.174999999999727
686,1464.59,0.6600000000000819
687,1465.03,2.2799999999999727
688,1466.55,0.8249999999999318
689,1467.1,2.1900000000000546
690,1468.56,0.6600000000000819
691,1469.0,2.4299999999998363
692,1470.62,0.5850000000001501
693,1471.01,2.369999999999891
694,1472.59,0.7050000000000409
695,1473.06,2.3099999999999454
696,1474.6,0.6150000000001228
697,1475.01,2.324999999999932
698,1476.56,0.7050000000000409
699,1477.03,2.384999999999877
700,1478.62,0.8700000000002319
701,1479.2,1.9649999999999181
702,1480.51,0.7949999999999591
703,1481.04,2.25
704,1482.54,0.7050000000000409
705,1483.01,2.3999999999998636
706,1484.61,0.6000000000001364
707,1485.01,2.490000000000123
708,1486.67,0.5099999999998772
709,1487.01,2.339999999999918
710,1488.57,0.7649999999999864
711,1489.08,2.3099999999999454
712,1490.62,0.7050000000000409
713,1491.09,2.1900000000000546
714,1492.55,0.8099999999999454
715,1493.09,2.1900000000000546
716,1494.55,1.0650000000000546
717,1495.26,1.9349999999999454
718,1496.55,0.7050000000000409
719,1497.02,2.294999999999959
720,1498.55,0.6900000000000546
721,1499.01,2.3549999999999045
722,1500.58,0.7050000000000409
723,1501.05,2.2799999999999727
724,1502.57,0.7050000000000409
725,1503.04,2.2799999999999727
726,1504.56,0.8700000000002319
727,1505.14,2.1899999999997135
728,1506.6,0.6150000000001228
729,1507.01,2.2799999999999727
730,1508.53,0.9450000000001637
731,1509.16,2.159999999999741
732,1510.6,0.75
733,1511.1,2.1450000000000955
734,1512.53,0.7799999999999727
735,1513.05,2.339999999999918
736,1514.61,0.7050000000000409
737,1515.08,2.2649999999999864
738,1516.59,0.6900000000000546
739,1517.05,2.25
740,1518.55,0.6900000000000546
741,1519.01,2.25
742,1520.51,0.8549999999999045
743,1521.08,2.130000000000109
744,1522.5,0.7949999999999591
745,1523.03,2.369999999999891
746,1524.61,0.6000000000001364
747,1525.01,2.25
748,1526.51,0.9450000000001637
749,1527.14,2.1899999999997135
750,1528.6,0.7050000000000409
751,1529.07,2.175000000000068
752,1530.52,0.8549999999999045
753,1531.09,2.2350000000000136
754,1532.58,0.6300000000001091
755,1533.0,2.3099999999999454
756,1534.54,0.7200000000000273
757,1535.02,2.369999999999891
758,1536.6,0.6450000000000955
759,1537.03,2.205000000000041
760,1538.5,0.7649999999999864
761,1539.01,2.3099999999999454
762,1540.55,0.6750000000000682
763,1541.0,2.294999999999959
764,1542.53,0.7799999999999727
765,1543.05,2.205000000000041
766,1544.52,0.8549999999999045
767,1545.09,2.205000000000041
768,1546.56,0.6750000000000682
769,1547.01,2.3999999999998636
770,1548.61,0.6750000000000682
771,1549.06,2.205000000000041
772,1550.53,0.8399999999999181
773,1551.09,2.175000000000068
774,1552.54,0.8399999999999181
775,1553.1,2.2200000000000273
776,1554.58,0.6750000000000682
777,1555.03,2.3549999999999045
778,1556.6,0.6600000000000819
779,1557.04,2.25
780,1558.54,0.8399999999999181
781,1559.1,2.25
782,1560.6,0.75
783,1561.1,2.175000000000068
784,1562.55,0.75
785,1563.05,2.1900000000000546
786,1564.51,0.8849999999998772
787,1565.1,2.1450000000000955
788,1566.53,0.7050000000000409
789,1567.0,2.324999999999932
790,1568.55,0.7050000000000409
791,1569.02,2.324999999999932
792,1570.57,0.7050000000000409
793,1571.04,2.324999999999932
794,1572.59,0.7050000000000409
795,1573.06,2.4000000000002046
796,1574.66,0.5399999999998499
797,1575.02,2.369999999999891
798,1576.6,0.6900000000000546
799,1577.06,2.205000000000041
800,1578.53,0.7799999999999727
801,1579.05,2.4300000000001774
802,1580.67,0.6299999999997681
803,1581.09,2.205000000000041
804,1582.56,0.6900000000000546
805,1583.02,2.384999999999877
806,1584.61,0.6900000000000546
807,1585.07,2.1900000000000546
808,1586.53,0.7350000000000136
809,1587.02,2.25
810,1588.52,0.7649999999999864
811,1589.03,2.2649999999999864
812,1590.54,0.7050000000000409
813,1591.01,2.2649999999999864
814,1592.52,0.8849999999998772
815,1593.11,2.08500000000015
816,1594.5,0.8849999999998772
817,1595.09,2.175000000000068
818,1596.54,0.6900000000000546
819,1597.0,2.3549999999999045
820,1598.57,0.7050000000000409
821,1599.04,2.2799999999999727
822,1600.56,0.7799999999999727
823,1601.08,2.160000000000082
824,1602.52,0.8849999999998772
825,1603.11,2.25
826,1604.61,0.6900000000000546
827,1605.07,2.175000000000068
828,1606.52,0.9450000000001637
829,1607.15,2.129999999999768
830,1608.57,0.6900000000000546
831,1609.03,2.25
832,1610.53,0.8699999999998909
833,1611.11,2.25
834,1612.61,0.6900000000000546
835,1613.07,2.324999999999932
836,1614.62,0.6000000000001364
837,1615.02,2.25
838,1616.52,0.8699999999998909
839,1617.1,2.1450000000000955
840,1618.53,0.7799999999999727
841,1619.05,2.4000000000002046
842,1620.65,0.5999999999997954
843,1621.05,2.2200000000000273
844,1622.53,0.7649999999999864
845,1623.04,2.324999999999932
846,1624.59,0.6750000000000682
847,1625.04,2.2350000000000136
848,1626.53,0.7200000000000273
849,1627.01,2.3099999999999454
850,1628.55,0.6750000000000682
851,1629.0,2.3999999999998636
852,1630.6,0.7649999999999864
853,1631.11,2.205000000000041
854,1632.58,0.6750000000000682
855,1633.03,2.2200000000000273
856,1634.51,0.7649999999999864
857,1635.02,2.25
858,1636.52,0.8549999999999045
859,1637.09,2.46000000000015
860,1638.73,0.49499999999989086
861,1639.06,2.46000000000015
862,1640.7,0.5999999999997954
863,1641.1,2.115000000000123
864,1642.51,0.75
865,1643.01,2.2649999999999864
866,1644.52,0.7649999999999864
867,1645.03,2.2649999999999864
868,1646.54,0.8399999999999181
869,1647.1,2.2649999999999864
870,1648.61,0.6600000000000819
871,1649.05,2.2200000000000273
872,1650.53,0.8249999999999318
873,1651.08,2.2200000000000273
874,1652.56,0.7649999999999864
875,1653.07,2.294999999999959
876,1654.6,0.7050000000000409
877,1655.07,2.25
878,1656.57,0.7200000000000273
879,1657.05,2.2350000000000136
880,1658.54,0.6900000000000546
881,1659.0,2.324999999999932
882,1660.55,0.9600000000001501
883,1661.19,2.0249999999998636
884,1662.54,0.7949999999999591
885,1663.07,2.2200000000000273
886,1664.55,0.8099999999999454
887,1665.09,2.1900000000000546
888,1666.55,0.7350000000000136
889,1667.04,2.2350000000000136
890,1668.53,0.8249999999999318
891,1669.08,2.1900000000000546
892,1670.54,0.7649999999999864
893,1671.05,2.2200000000000273
894,1672.53,0.7949999999999591
895,1673.06,2.2799999999999727
896,1674.58,0.7649999999999864
897,1675.09,2.130000000000109
898,1676.51,0.8549999999999045
899,1677.08,2.25
900,1678.58,0.7799999999999727
901,1679.1,2.160000000000082
902,1680.54,0.8549999999999045
903,1681.11,2.1000000000001364
904,1682.51,0.7799999999999727
905,1683.03,2.25
906,1684.53,0.75
907,1685.03,2.3099999999999454
908,1686.57,0.7649999999999864
909,1687.08,2.2200000000000273
910,1688.56,0.7799999999999727
911,1689.08,2.175000000000068
912,1690.53,0.7050000000000409
913,1691.0,2.535000000000082
914,1692.69,0.4799999999999045
915,1693.01,2.339999999999918
916,1694.57,0.7200000000000273
917,1695.05,2.2649999999999864
918,1696.56,0.6900000000000546
919,1697.02,2.339999999999918
920,1698.58,0.6750000000000682
921,1699.03,2.2350000000000136
922,1700.52,0.75
923,1701.02,2.2350000000000136
924,1702.51,0.8099999999999454
925,1703.05,2.25
926,1704.55,0.6900000000000546
927,1705.01,2.339999999999918
928,1706.57,0.7050000000000409
929,1707.04,2.1900000000000546
930,1708.5,0.8549999999999045
931,1709.07,2.2799999999999727
932,1710.59,0.6900000000000546
933,1711.05,2.2649999999999864
934,1712.56,0.7649999999999864
935,1713.07,2.1450000000000955
936,1714.5,0.8399999999999181
937,1715.06,2.175000000000068
938,1716.51,0.7949999999999591
939,1717.04,2.2649999999999864
940,1718.55,0.7649999999999864
941,1719.06,2.25
942,1720.56,0.75
943,1721.06,2.1900000000000546
944,1722.52,0.7949999999999591
945,1723.05,2.2200000000000273
946,1724.53,0.8399999999999181
947,1725.09,2.1450000000000955
948,1726.52,0.8549999999999045
949,1727.09,2.2200000000000273
950,1728.57,0.6750000000000682
951,1729.02,2.2799999999999727
952,1730.54,0.7350000000000136
953,1731.03,2.25
954,1732.53,0.7949999999999591
955,1733.06,2.1900000000000546
956,1734.52,0.8399999999999181
957,1735.08,2.325000000000273
958,1736.63,0.6749999999997272
959,1737.08,2.25
960,1738.58,0.6600000000000819
961,1739.02,2.294999999999959
962,1740.55,0.7350000000000136
963,1741.04,2.2200000000000273
964,1742.52,0.75
965,1743.02,2.2799999999999727
966,1744.54,0.7949999999999591
967,1745.07,2.2799999999999727
968,1746.59,0.6600000000000819
969,1747.03,2.2649999999999864
970,1748.54,0.6900000000000546
971,1749.0,2.294999999999959
972,1750.53,0.7200000000000273
973,1751.01,2.6100000000000136
974,1752.75,0.43499999999994543
975,1753.04,2.25
976,1754.54,0.7050000000000409
977,1755.01,2.25
978,1756.51,0.7649999999999864
979,1757.02,2.25
980,1758.52,0.7350000000000136
981,1759.01,2.294999999999959
982,1760.54,0.8099999999999454
983,1761.08,2.160000000000082
984,1762.52,0.7649999999999864
985,1763.03,2.2350000000000136
986,1764.52,0.8699999999998909
987,1765.1,2.2350000000000136
988,1766.59,0.6300000000001091
989,1767.01,2.2649999999999864
990,1768.52,0.9300000000001774
991,1769.14,2.3549999999999045
992,1770.71,0.43499999999994543
993,1771.0,2.384999999999877
994,1772.59,0.6600000000000819
995,1773.03,2.369999999999891
996,1774.61,0.6600000000000819
997,1775.05,2.2799999999999727
998,1776.57,0.6900000000000546
999,1777.03,2.25
1000,1778.53,0.7350000000000136
1001,1779.02,2.25
1002,1780.52,0.7949999999999591
1003,1781.05,2.1900000000000546
1004,1782.51,0.8399999999999181
1005,1783.07,2.2200000000000273
1006,1784.55,0.6900000000000546
1007,1785.01,2.4300000000001774
1008,1786.63,0.5999999999997954
1009,1787.03,2.2200000000000273
1010,1788.51,0.7949999999999591
1011,1789.04,2.205000000000041
1012,1790.51,0.8249999999999318
1013,1791.06,2.205000000000041
1014,1792.53,0.7799999999999727
1015,1793.05,2.2649999999999864
1016,1794.56,0.7949999999999591
1017,1795.09,2.1450000000000955
1018,1796.52,0.8249999999999318
1019,1797.07,2.25
1020,1798.57,0.7799999999999727
1021,1799.09,2.1900000000000546
1022,1800.55,0.75
1023,1801.05,2.1900000000000546
1024,1802.51,0.8549999999999045
1025,1803.08,2.2799999999999727
1026,1804.6,0.6150000000001228
1027,1805.01,2.294999999999959
1028,1806.54,0.7949999999999591
1029,1807.07,2.2649999999999864
1030,1808.58,0.6600000000000819
1031,1809.02,2.25
1032,1810.52,0.7649999999999864
1033,1811.03,2.2350000000000136
1034,1812.52,0.8099999999999454
1035,1813.06,2.1900000000000546
1036,1814.52,0.8399999999999181
1037,1815.08,2.160000000000082
1038,1816.52,0.7949999999999591
1039,1817.05,2.205000000000041
1040,1818.52,0.7200000000000273
1041,1819.0,2.294999999999959
1042,1820.53,0.7949999999999591
1043,1821.06,2.1900000000000546
1044,1822.52,0.7200000000000273
1045,1823.0,2.3549999999999045
1046,1824.57,0.75
1047,1825.07,2.3550000000002456
1048,1826.64,0.584999999999809
1049,1827.03,1.6349999999998772
1050,1828.12,1.33500000000015
1051,1829.01,2.3999999999998636
1052,1830.61,0.6600000000000819
1053,1831.05,2.205000000000041
1054,1832.52,0.7200000000000273
1055,1833.0,2.41499999999985
1056,1834.61,0.7950000000003001
1057,1835.14,2.03999999999985
1058,1836.5,0.8849999999998772
1059,1837.09,2.2200000000000273
1060,1838.57,0.8850000000002183
1061,1839.16,2.0249999999998636
1062,1840.51,0.9900000000001228
1063,1841.17,2.159999999999741
1064,1842.61,0.7200000000000273
1065,1843.09,2.115000000000123
1066,1844.5,0.8549999999999045
1067,1845.07,2.25
1068,1846.57,0.7200000000000273
1069,1847.05,2.2350000000000136
1070,1848.54,0.8249999999999318
1071,1849.09,2.2350000000000136
1072,1850.58,0.75
1073,1851.08,2.205000000000041
1074,1852.55,0.7949999999999591
1075,1853.08,2.1450000000000955
1076,1854.51,0.8249999999999318
1077,1855.06,2.2350000000000136
1078,1856.55,0.7050000000000409
1079,1857.02,2.2799999999999727
1080,1858.54,0.7050000000000409
1081,1859.01,2.2649999999999864
1082,1860.52,0.8849999999998772
1083,1861.11,2.175000000000068
1084,1862.56,0.7649999999999864
1085,1863.07,2.25
1086,1864.57,0.7200000000000273
1087,1865.05,2.2200000000000273
1088,1866.53,0.8099999999999454
1089,1867.07,2.25
1090,1868.57,0.6900000000000546
1091,1869.03,2.294999999999959
1092,1870.56,0.7200000000000273
1093,1871.04,2.1900000000000546
1094,1872.5,0.8249999999999318
1095,1873.05,2.205000000000041
1096,1874.52,0.75
1097,1875.02,2.25
1098,1876.52,0.7200000000000273
1099,1877.0,2.294999999999959
1100,1878.53,0.7350000000000136
1101,1879.02,2.339999999999918
1102,1880.58,0.7200000000000273
1103,1881.06,2.2649999999999864
1104,1882.57,0.7050000000000409
1105,1883.04,2.25
1106,1884.54,0.7799999999999727
1107,1885.06,2.2350000000000136
1108,1886.55,0.75
1109,1887.05,2.25
1110,1888.55,0.75
1111,1889.05,2.2200000000000273
1112,1890.53,0.7350000000000136
1113,1891.02,2.324999999999932
1114,1892.57,0.7050000000000409
1115,1893.04,2.324999999999932
1116,1894.59,0.6750000000000682
1117,1895.04,2.25
1118,1896.54,0.6900000000000546
1119,1897.0,2.324999999999932
1120,1898.55,0.6750000000000682
1121,1899.0,2.339999999999918
1122,1900.56,0.6900000000000546
1123,1901.02,2.2200000000000273
1124,1902.5,0.7649999999999864
1125,1903.01,2.25
1126,1904.51,0.7649999999999864
1127,1905.02,2.384999999999877
1128,1906.61,0.6600000000000819
1129,1907.05,2.2799999999999727
1130,1908.57,0.7350000000000136
1131,1909.06,2.175000000000068
1132,1910.51,0.8249999999999318
1133,1911.06,2.175000000000068
1134,1912.51,0.7949999999999591
1135,1913.04,2.2350000000000136
1136,1914.53,0.8099999999999454
1137,1915.07,2.1900000000000546
1138,1916.53,0.7350000000000136
1139,1917.02,2.2350000000000136
1140,1918.51,0.8699999999998909
1141,1919.09,2.205000000000041
1142,1920.56,0.7050000000000409
1143,1921.03,2.25
1144,1922.53,0.7200000000000273
1145,1923.01,2.2799999999999727
1146,1924.53,0.8099999999999454
1147,1925.07,2.1450000000000955
1148,1926.5,0.8999999999998636
1149,1927.1,2.205000000000041
1150,1928.57,0.7050000000000409
1151,1929.04,2.2799999999999727
1152,1930.56,0.75
1153,1931.06,2.2799999999999727
1154,1932.58,0.6600000000000819
1155,1933.02,2.2649999999999864
1156,1934.53,0.75
1157,1935.03,2.3099999999999454
1158,1936.57,0.8099999999999454
1159,1937.11,2.08500000000015
1160,1938.5,0.7649999999999864
1161,1939.01,2.2649999999999864
1162,1940.52,0.7949999999999591
1163,1941.05,2.175000000000068
1164,1942.5,0.7949999999999591
1165,1943.03,2.2200000000000273
1166,1944.51,0.7799999999999727
1167,1945.03,2.2649999999999864
1168,1946.54,0.7350000000000136
1169,1947.03,2.324999999999932
1170,1948.58,0.6450000000000955
1171,1949.01,2.25
1172,1950.51,0.7649999999999864
1173,1951.02,2.2649999999999864
1174,1952.53,0.7350000000000136
1175,1953.02,2.25
1176,1954.52,0.7200000000000273
1177,1955.0,2.2799999999999727
1178,1956.52,0.75
1179,1957.02,2.2649999999999864
1180,1958.53,0.7200000000000273
1181,1959.01,2.25
1182,1960.51,0.7949999999999591
1183,1961.04,2.3099999999999454
1184,1962.58,0.6600000000000819
1185,1963.02,2.25
1186,1964.52,0.7649999999999864
1187,1965.03,2.294999999999959
1188,1966.56,0.6900000000000546
1189,1967.02,2.2799999999999727
1190,1968.54,0.8249999999999318
1191,1969.09,2.160000000000082
1192,1970.53,0.7350000000000136
1193,1971.02,2.339999999999918
1194,1972.58,0.6450000000000955
1195,1973.01,2.25
1196,1974.51,0.7799999999999727
1197,1975.03,2.2200000000000273
1198,1976.51,0.75
1199,1977.01,2.3099999999999454
1200,1978.55,0.6750000000000682
1201,1979.0,2.294999999999959
1202,1980.53,0.7949999999999591
1203,1981.06,2.205000000000041
1204,1982.53,0.7649999999999864
1205,1983.04,2.2200000000000273
1206,1984.52,0.7949999999999591
1207,1985.05,2.2200000000000273
1208,1986.53,0.7200000000000273
1209,1987.01,2.25
1210,1988.51,0.7949999999999591
1211,1989.04,2.2350000000000136
1212,1990.53,0.7350000000000136
1213,1991.02,2.25
1214,1992.52,0.75
1215,1993.02,2.2799999999999727
1216,1994.54,0.7649999999999864
1217,1995.05,2.25
1218,1996.55,0.7050000000000409
1219,1997.02,2.3099999999999454
1220,1998.56,0.6750000000000682
1221,1999.01,2.2799999999999727
1222,2000.53,0.7649999999999864
1223,2001.04,2.2350000000000136
1224,2002.53,0.7799999999999727
1225,2003.05,2.175000000000068
1226,2004.5,0.7949999999999591
1227,2005.03,2.25
1228,2006.53,0.7350000000000136
1229,2007.02,2.25
1230,2008.52,0.7350000000000136
1231,2009.01,2.2799999999999727
1232,2010.53,0.7649999999999864
1233,2011.04,2.2649999999999864
1234,2012.55,0.7200000000000273
1235,2013.03,0.7350000000000136
1236,2013.52,2.2200000000000273
1237,2015.0,2.384999999999877
1238,2016.59,2.9700000000000273
1239,2018.57,0.6750000000000682
1240,2019.02,2.3099999999999454
1241,2020.56,2.205000000000041
1242,2022.03,1.455000000000041
1243,2023.0,2.3999999999998636
1244,2024.6,2.9850000000000136
1245,2026.59,2.9700000000000273
1246,2028.57,0.7949999999999591
1247,2029.1,2.115000000000123
1248,2030.51,0.8699999999998909
1249,2031.09,2.25
1250,2032.59,0.7799999999999727
1251,2033.11,2.2800000000003138
1252,2034.63,0.5999999999997954
1253,2035.03,2.2799999999999727
1254,2036.55,0.6750000000000682
1255,2037.0,2.324999999999932
1256,2038.55,0.8549999999999045
1257,2039.12,2.1450000000000955
1258,2040.55,0.7799999999999727
1259,2041.07,2.2350000000000136
1260,2042.56,2.9400000000000546
1261,2044.52,3.165000000000191
1262,2046.63,2.1449999999997544
1263,2048.06,1.5150000000003274
1264,2049.07,2.174999999999727
1265,2050.52,0.7650000000003274
1266,2051.03,2.4299999999998363
1267,2052.65,2.9700000000000273
1268,2054.63,0.7200000000000273
1269,2055.11,2.2049999999997
1270,2056.58,2.2200000000000273
1271,2058.06,3.089999999999918
1272,2060.12,3.0150000000003274
1273,2062.13,3.6449999999997544
1274,2064.56,2.2200000000000273
1275,2066.04,3.0150000000003274
1276,2068.05,1.544999999999618
1277,2069.08,2.2350000000003547
1278,2070.57,0.7649999999996453
1279,2071.08,2.2350000000003547
1280,2072.57,0.7200000000000273
1281,2073.05,1.5299999999999727
1282,2074.07,1.5299999999999727
1283,2075.09,1.3949999999997544
1284,2076.02,1.4700000000000273
1285,2077.0,2.3550000000002456
1286,2078.57,2.910000000000082
1287,2080.51,0.7349999999996726
1288,2081.0,2.2799999999999727
1289,2082.52,0.8550000000002456
1290,2083.09,2.2200000000000273
1291,2084.57,0.6900000000000546
1292,2085.03,2.384999999999536
1293,2086.62,0.7200000000000273
1294,2087.1,2.2650000000003274
1295,2088.61,0.7349999999996726
1296,2089.1,2.2950000000003
1297,2090.63,0.7649999999996453
1298,2091.14,2.4300000000005184
1299,2092.76,0.4049999999999727
1300,2093.03,1.6349999999995362
1301,2094.12,1.5
1302,2095.12,2.25
1303,2096.62,0.6000000000001364
1304,2097.02,1.8900000000003274
1305,2098.28,1.2599999999995362
1306,2099.12,5.2950000000003
1307,2102.65,0.540000000000191
1308,2103.01,2.2349999999996726
1309,2104.5,1.0350000000000819
1310,2105.19,2.130000000000109
1311,2106.61,0.8249999999995907
1312,2107.16,2.0250000000005457
1313,2108.51,0.7649999999996453
1314,2109.02,2.2350000000003547
1315,2110.51,0.8699999999998909
1316,2111.09,2.1900000000000546
1317,2112.55,0.7349999999996726
1318,2113.04,2.2350000000003547
1319,2114.53,0.7799999999999727
1320,2115.05,2.2200000000000273
1321,2116.53,0.7049999999996999
1322,2117.0,2.25
1323,2118.5,0.7799999999999727
1324,2119.02,2.2350000000003547
1325,2120.51,0.8099999999999454
1326,2121.05,3.0149999999996453
1327,2123.06,2.25
1328,2124.56,0.7350000000003547
1329,2125.05,2.2049999999997
1330,2126.52,0.8250000000002728
1331,2127.07,2.4299999999998363
1332,2128.69,0.6000000000001364
1333,2129.09,2.160000000000082
1334,2130.53,0.7200000000000273
1335,2131.01,2.3999999999998636
1336,2132.61,0.584999999999809
1337,2133.0,2.4299999999998363
1338,2134.62,0.8250000000002728
1339,2135.17,2.2649999999996453
1340,2136.68,0.5550000000005184
1341,2137.05,1.4249999999997272
1342,2138.0,1.6950000000001637
1343,2139.13,2.1000000000001364
1344,2140.53,0.8099999999999454
1345,2141.07,2.294999999999618
1346,2142.6,0.6300000000001091
1347,2143.02,2.3099999999999454
1348,2144.56,0.8099999999999454
1349,2145.1,2.1450000000004366
1350,2146.53,0.8099999999999454
1351,2147.07,2.294999999999618
1352,2148.6,0.7200000000000273
1353,2149.08,2.205000000000382
1354,2150.55,2.9549999999997
1355,2152.52,0.7650000000003274
1356,2153.03,1.7849999999993997
1357,2154.22,1.2150000000006003
1358,2155.03,2.25
1359,2156.53,3.1799999999998363
1360,2158.65,2.084999999999809
1361,2160.04,1.4700000000000273
1362,2161.02,2.25
1363,2162.52,0.8699999999998909
1364,2163.1,2.1900000000000546
1365,2164.56,2.955000000000382
1366,2166.53,0.8849999999995362
1367,2167.12,1.3650000000004638
1368,2168.03,3.8549999999995634
1369,2170.6,0.7200000000000273
1370,2171.08,0.7950000000003001
1371,2171.61,2.2200000000000273
1372,2173.09,2.3249999999995907
1373,2174.64,2.9400000000000546
1374,2176.6,0.6000000000001364
1375,2177.0,1.5450000000003001
1376,2178.03,3.8249999999995907
1377,2180.58,0.7200000000000273
1378,2181.06,2.325000000000273
1379,2182.61,2.1449999999997544
1380,2184.04,3.915000000000191
1381,2186.65,2.9849999999996726
1382,2188.64,0.7950000000003001
1383,2189.17,2.1000000000001364
1384,2190.57,0.7349999999996726
1385,2191.06,1.5750000000002728
1386,2192.11,1.3649999999997817
1387,2193.02,1.4700000000000273
1388,2194.0,1.9949999999998909
1389,2195.33,1.0650000000000546
1390,2196.04,1.6499999999998636
1391,2197.14,1.4100000000000819
1392,2198.08,3.7200000000000273
1393,2200.56,3.1350000000002183
1394,2202.65,2.8500000000001364
1395,2204.55,0.7049999999996999
1396,2205.02,0.7200000000000273
1397,2205.5,4.5
1398,2208.5,0.8099999999999454
1399,2209.04,1.4400000000000546
1400,2210.0,1.5299999999999727
1401,2211.02,2.3099999999999454
1402,2212.56,0.6900000000000546
1403,2213.02,2.3099999999999454
1404,2214.56,0.6750000000004093
1405,2215.01,2.414999999999509
1406,2216.62,3.089999999999918
1407,2218.68,2.7750000000005457
1408,2220.53,0.7349999999996726
1409,2221.02,2.2799999999999727
1410,2222.54,0.7650000000003274
1411,2223.05,2.2349999999996726
1412,2224.54,0.705000000000382
1413,2225.01,2.384999999999536
1414,2226.6,0.6000000000001364
1415,2227.0,2.25
1416,2228.5,3.0150000000003274
1417,2230.51,0.7799999999999727
1418,2231.03,0.794999999999618
1419,2231.56,4.425000000000409
1420,2234.51,0.75
1421,2235.01,2.384999999999536
1422,2236.6,2.9250000000004093
1423,2238.55,0.7049999999996999
1424,2239.02,2.339999999999918
1425,2240.58,0.6450000000004366
1426,2241.01,2.414999999999509
1427,2242.62,3.0
1428,2244.62,2.9700000000000273
1429,2246.6,0.6300000000001091
1430,2247.02,2.2799999999999727
1431,2248.54,0.8850000000002183
1432,2249.13,2.1900000000000546
1433,2250.59,0.6300000000001091
1434,2251.01,2.4749999999994543
1435,2252.66,2.790000000000191
1436,2254.52,0.75
1437,2255.02,3.1350000000002183
1438,2257.11,2.1000000000001364
1439,2258.51,0.794999999999618
1440,2259.04,1.455000000000382
1441,2260.01,3.7649999999996453
1442,2262.52,0.7350000000003547
1443,2263.01,1.6649999999995089
1444,2264.12,1.3800000000001091
1445,2265.04,2.4299999999998363
1446,2266.66,1.3500000000001364
1447,2267.56,2.205000000000382
1448,2269.03,1.7399999999997817
1449,2270.19,1.3949999999997544
1450,2271.12,2.415000000000191
1451,2272.73,0.6000000000001364
1452,2273.13,1.3949999999997544
1453,2274.06,1.5899999999999181
1454,2275.12,2.865000000000464
1455,2277.03,2.2200000000000273
1456,2278.51,0.7349999999996726
1457,2279.0,2.4299999999998363
1458,2280.62,2.880000000000109
1459,2282.54,0.6900000000000546
1460,2283.0,1.6799999999998363
1461,2284.12,3.630000000000109
1462,2286.54,0.75
1463,2287.04,2.9700000000000273
1464,2289.02,2.2950000000003
1465,2290.55,1.0199999999997544
1466,2291.23,2.160000000000082
1467,2292.67,1.3049999999998363
1468,2293.54,2.2650000000003274
1469,2295.05,1.5149999999996453
1470,2296.06,1.4100000000000819
1471,2297.0,2.339999999999918
1472,2298.56,0.705000000000382
1473,2299.03,1.5
1474,2300.03,1.6649999999995089
1475,2301.14,2.1450000000004366
1476,2302.57,0.6900000000000546
1477,2303.03,2.2200000000000273
1478,2304.51,0.8849999999995362
1479,2305.1,2.1000000000001364
1480,2306.5,0.9299999999998363
1481,2307.12,1.5299999999999727
1482,2308.14,2.790000000000191
1483,2310.0,1.5
1484,2311.0,2.3550000000002456
1485,2312.57,0.6600000000000819
1486,2313.01,2.2799999999999727
1487,2314.53,0.7799999999999727
1488,2315.05,2.2200000000000273
1489,2316.53,0.75
1490,2317.03,2.3999999999998636
1491,2318.63,0.6149999999997817
1492,2319.04,1.6350000000002183
1493,2320.13,1.5149999999996453
1494,2321.14,2.1000000000001364
1495,2322.54,0.8550000000002456
1496,2323.11,2.25
1497,2324.61,0.7049999999996999
1498,2325.08,2.130000000000109
1499,2326.5,2.2950000000003
1500,2328.03,1.5149999999996453
1501,2329.04,1.5150000000003274
1502,2330.05,3.6900000000000546
1503,2332.51,0.8099999999999454
1504,2333.05,1.4849999999996726
1505,2334.04,1.5450000000003001
1506,2335.07,1.4400000000000546
1507,2336.03,1.4700000000000273
1508,2337.01,2.2799999999999727
1509,2338.53,0.8399999999999181
1510,2339.09,2.2649999999996453
1511,2340.6,0.6750000000004093
1512,2341.05,2.25
1513,2342.55,0.75
1514,2343.05,2.2200000000000273
1515,2344.53,0.7799999999999727
1516,2345.05,2.25
1517,2346.55,0.7349999999996726
1518,2347.04,2.415000000000191
1519,2348.65,0.7049999999996999
1520,2349.12,2.085000000000491
1521,2350.51,0.8399999999999181
1522,2351.07,2.2049999999997
1523,2352.54,0.7200000000000273
1524,2353.02,2.369999999999891
1525,2354.6,0.6600000000000819
1526,2355.04,1.5299999999999727
1527,2356.06,3.7799999999999727
1528,2358.58,0.75
1529,2359.08,2.1750000000004093
1530,2360.53,0.8699999999998909
1531,2361.11,2.1000000000001364
1532,2362.51,2.294999999999618
1533,2364.04,3.7799999999999727
1534,2366.56,0.7650000000003274
1535,2367.07,2.160000000000082
1536,2368.51,0.8249999999995907
1537,2369.06,3.1499999999998636
1538,2371.16,1.4100000000000819
1539,2372.1,3.705000000000382
1540,2374.57,0.6749999999997272
1541,2375.02,1.709999999999809
1542,2376.16,1.2750000000005457
1543,2377.01,2.294999999999618
1544,2378.54,0.75
1545,2379.04,2.2799999999999727
1546,2380.56,0.6900000000000546
1547,2381.02,2.2350000000003547
1548,2382.51,0.7649999999996453
1549,2383.02,2.2350000000003547
1550,2384.51,0.7799999999999727
1551,2385.03,2.2799999999999727
1552,2386.55,0.75
1553,2387.05,2.25
1554,2388.55,0.7799999999999727
1555,2389.07,2.2049999999997
1556,2390.54,2.9850000000003547
1557,2392.53,2.9849999999996726
1558,2394.52,3.0
1559,2396.52,3.089999999999918
1560,2398.58,0.6750000000004093
1561,2399.03,2.369999999999891
1562,2400.61,0.7649999999996453
1563,2401.12,2.130000000000109
1564,2402.54,3.1799999999998363
1565,2404.66,2.8950000000004366
1566,2406.59,2.9849999999996726
1567,2408.58,0.705000000000382
1568,2409.05,2.2799999999999727
1569,2410.57,2.9700000000000273
1570,2412.55,2.9849999999996726
1571,2414.54,0.8250000000002728
1572,2415.09,1.7999999999997272
1573,2416.29,1.2000000000002728
1574,2417.09,1.4549999999996999
1575,2418.06,1.5750000000002728
1576,2419.11,5.294999999999618
1577,2422.64,2.835000000000491
1578,2424.53,0.7049999999996999
1579,2425.0,2.325000000000273
1580,2426.55,0.7200000000000273
1581,2427.03,1.5149999999996453
1582,2428.04,1.5599999999999454
1583,2429.08,2.1900000000000546
1584,2430.54,0.705000000000382
1585,2431.01,2.4449999999994816
1586,2432.64,2.880000000000109
1587,2434.56,3.2399999999997817
1588,2436.72,0.45000000000027285
1589,2437.02,2.369999999999891
1590,2438.6,0.6300000000001091
1591,2439.02,2.3099999999999454
1592,2440.56,0.7950000000003001
1593,2441.09,2.25
1594,2442.59,0.6749999999997272
1595,2443.04,2.3999999999998636
1596,2444.64,0.6000000000001364
1597,2445.04,1.5599999999999454
1598,2446.08,3.7350000000003547
1599,2448.57,0.7200000000000273
1600,2449.05,2.339999999999918
1601,2450.61,0.7200000000000273
1602,2451.09,2.130000000000109
1603,2452.51,3.044999999999618
1604,2454.54,0.8399999999999181
1605,2455.1,2.1750000000004093
1606,2456.55,0.8549999999995634
1607,2457.12,2.1000000000001364
1608,2458.52,0.75
1609,2459.02,2.369999999999891
1610,2460.6,0.7650000000003274
1611,2461.11,2.25
1612,2462.61,0.6749999999997272
1613,2463.06,2.3850000000002183
1614,2464.65,0.6600000000000819
1615,2465.09,2.5199999999997544
1616,2466.77,2.700000000000273
1617,2468.57,3.0599999999999454
1618,2470.61,2.8949999999997544
1619,2472.54,2.2200000000000273
1620,2474.02,1.5
1621,2475.02,2.4450000000001637
1622,2476.65,0.6000000000001364
1623,2477.05,2.25
1624,2478.55,0.6749999999997272
1625,2479.0,2.2950000000003
1626,2480.53,0.7200000000000273
1627,2481.01,2.3249999999995907
1628,2482.56,0.7950000000003001
1629,2483.09,2.294999999999618
1630,2484.62,0.8850000000002183
1631,2485.21,1.2149999999999181
1632,2486.02,3.119999999999891
1633,2488.1,2.9250000000004093
1634,2490.05,1.5299999999999727
1635,2491.07,2.3249999999995907
1636,2492.62,2.1750000000004093
1637,2494.07,3.9449999999994816
1638,2496.7,2.7600000000002183
1639,2498.54,0.75
1640,2499.04,2.2799999999999727
1641,2500.56,0.8099999999999454
1642,2501.1,2.160000000000082
1643,2502.54,0.7799999999999727
1644,2503.06,2.2200000000000273
1645,2504.54,0.9299999999998363
1646,2505.16,2.130000000000109
1647,2506.58,0.8250000000002728
1648,2507.13,1.3949999999997544
1649,2508.06,1.4250000000004093
1650,2509.01,1.5599999999999454
1651,2510.05,3.839999999999918
1652,2512.61,0.6900000000000546
1653,2513.07,2.294999999999618
1654,2514.6,0.6750000000004093
1655,2515.05,2.2200000000000273
1656,2516.53,3.75
1657,2519.03,2.2349999999996726
1658,2520.52,0.7200000000000273
1659,2521.0,2.3550000000002456
1660,2522.57,0.8099999999999454
1661,2523.11,2.25
1662,2524.61,2.834999999999809
1663,2526.5,0.915000000000191
1664,2527.11,2.174999999999727
1665,2528.56,0.7950000000003001
1666,2529.09,2.160000000000082
1667,2530.53,2.9549999999997
1668,2532.5,0.915000000000191
1669,2533.11,2.160000000000082
1670,2534.55,0.8099999999999454
1671,2535.09,2.2200000000000273
1672,2536.57,0.6600000000000819
1673,2537.01,0.8549999999995634
1674,2537.58,2.2350000000003547
1675,2539.07,0.6749999999997272
1676,2539.52,2.3850000000002183
1677,2541.11,3.0
1678,2543.11,2.1449999999997544
1679,2544.54,0.7799999999999727
1680,2545.06,2.2799999999999727
1681,2546.58,0.7650000000003274
1682,2547.09,1.4700000000000273
1683,2548.07,1.4100000000000819
1684,2549.01,2.3999999999998636
1685,2550.61,2.2049999999997
1686,2552.08,1.4700000000000273
1687,2553.06,2.325000000000273
1688,2554.61,0.7799999999999727
1689,2555.13,2.25
1690,2556.63,3.0299999999999727
1691,2558.65,0.6449999999997544
1692,2559.08,2.205000000000382
1693,2560.55,0.7049999999996999
1694,2561.02,0.7200000000000273
1695,2561.5,2.2799999999999727
1696,2563.02,2.2950000000003
1697,2564.55,0.7200000000000273
1698,2565.03,2.2049999999997
1699,2566.5,0.8099999999999454
1700,2567.04,2.2650000000003274
1701,2568.55,0.6900000000000546
1702,2569.01,2.2649999999996453
1703,2570.52,3.0450000000003
1704,2572.55,2.3099999999999454
1705,2574.09,1.3800000000001091
1706,2575.01,2.3099999999999454
1707,2576.55,0.7649999999996453
1708,2577.06,2.2350000000003547
1709,2578.55,0.8099999999999454
1710,2579.09,2.2349999999996726
1711,2580.58,2.160000000000082
1712,2582.02,1.5750000000002728
1713,2583.07,2.160000000000082
1714,2584.51,0.8249999999995907
1715,2585.06,2.160000000000082
1716,2586.5,3.1799999999998363
1717,2588.62,0.6300000000001091
1718,2589.04,2.2350000000003547
1719,2590.53,0.7200000000000273
1720,2591.01,2.504999999999427
1721,2592.68,2.8200000000001637
1722,2594.56,0.705000000000382
1723,2595.03,0.794999999999618
1724,2595.56,2.25
1725,2597.06,2.2799999999999727
1726,2598.58,3.0150000000003274
1727,2600.59,3.044999999999618
1728,2602.62,0.7650000000003274
1729,2603.13,2.130000000000109
1730,2604.55,1.0199999999997544
1731,2605.23,2.0549999999998363
1732,2606.6,0.6900000000000546
1733,2607.06,2.3550000000002456
1734,2608.63,0.8699999999998909
1735,2609.21,0.6000000000001364
1736,2609.61,2.174999999999727
1737,2611.06,1.455000000000382
1738,2612.03,3.9749999999994543
1739,2614.68,2.910000000000082
1740,2616.62,0.705000000000382
1741,2617.09,2.294999999999618
1742,2618.62,2.835000000000491
1743,2620.51,0.8099999999999454
1744,2621.05,2.25
1745,2622.55,0.7799999999999727
1746,2623.07,2.160000000000082
1747,2624.51,0.8999999999998636
1748,2625.11,2.25
1749,2626.61,0.7349999999996726
1750,2627.1,2.2799999999999727
1751,2628.62,0.75
1752,2629.12,2.1750000000004093
1753,2630.57,3.0299999999999727
1754,2632.59,0.7049999999996999
1755,2633.06,2.1750000000004093
1756,2634.51,0.7649999999996453
1757,2635.02,2.2200000000000273
1758,2636.5,3.075000000000273
1759,2638.55,0.7049999999996999
1760,2639.02,2.25
1761,2640.52,0.7350000000003547
1762,2641.01,2.3099999999999454
1763,2642.55,0.6749999999997272
1764,2643.0,3.209999999999809
1765,2645.14,2.0550000000005184
1766,2646.51,0.794999999999618
1767,2647.04,2.369999999999891
1768,2648.62,0.75
1769,2649.12,2.205000000000382
1770,2650.59,2.9849999999996726
1771,2652.58,0.7200000000000273
1772,2653.06,2.339999999999918
1773,2654.62,2.8200000000001637
1774,2656.5,3.0150000000003274
1775,2658.51,0.7649999999996453
1776,2659.02,0.7350000000003547
1777,2659.51,2.2649999999996453
1778,2661.02,2.25
1779,2662.52,0.7650000000003274
1780,2663.03,1.4849999999996726
1781,2664.02,1.4850000000003547
1782,2665.01,2.25
1783,2666.51,0.75
1784,2667.01,2.3099999999999454
1785,2668.55,0.7349999999996726
1786,2669.04,2.2200000000000273
1787,2670.52,0.7650000000003274
1788,2671.03,2.25
1789,2672.53,0.7200000000000273
1790,2673.01,1.5299999999999727
1791,2674.03,1.5149999999996453
1792,2675.04,2.2350000000003547
1793,2676.53,0.7049999999996999
1794,2677.0,2.325000000000273
1795,2678.55,2.9849999999996726
1796,2680.54,0.7799999999999727
1797,2681.06,0.7200000000000273
1798,2681.54,2.2200000000000273
1799,2683.02,2.25
1800,2684.52,3.0599999999999454
1801,2686.56,0.705000000000382
1802,2687.03,2.2349999999996726
1803,2688.52,0.8099999999999454
1804,2689.06,2.2200000000000273
1805,2690.54,0.7200000000000273
1806,2691.02,0.7799999999999727
1807,2691.54,2.2950000000003
1808,2693.07,2.369999999999891
1809,2694.65,0.6149999999997817
1810,2695.06,2.2950000000003
1811,2696.59,0.6900000000000546
1812,2697.05,2.2200000000000273
1813,2698.53,1.5899999999999181
1814,2699.59,2.1449999999997544
1815,2701.02,2.2350000000003547
1816,2702.51,0.9299999999998363
1817,2703.13,2.2200000000000273
1818,2704.61,0.7200000000000273
1819,2705.09,2.1900000000000546
1820,2706.55,0.8099999999999454
1821,2707.09,2.2799999999999727
1822,2708.61,0.6300000000001091
1823,2709.03,2.3249999999995907
1824,2710.58,2.8950000000004366
1825,2712.51,3.1049999999995634
1826,2714.58,0.6900000000000546
1827,2715.04,2.325000000000273
1828,2716.59,2.9400000000000546
1829,2718.55,0.7649999999996453
1830,2719.06,2.339999999999918
1831,2720.62,0.8550000000002456
1832,2721.19,2.0549999999998363
1833,2722.56,0.7650000000003274
1834,2723.07,1.6049999999995634
1835,2724.14,1.3500000000001364
1836,2725.04,2.2950000000003
1837,2726.57,0.6749999999997272
1838,2727.02,2.25
1839,2728.52,0.7950000000003001
1840,2729.05,2.2200000000000273
1841,2730.53,0.7049999999996999
1842,2731.0,2.2650000000003274
1843,2732.51,0.8999999999998636
1844,2733.11,1.334999999999809
1845,2734.0,1.5899999999999181
1846,2735.06,2.1900000000000546
1847,2736.52,1.0650000000000546
1848,2737.23,1.9349999999999454
1849,2738.52,3.0
1850,2740.52,0.7950000000003001
1851,2741.05,2.1900000000000546
1852,2742.51,0.75
1853,2743.01,2.2349999999996726
1854,2744.5,0.8099999999999454
1855,2745.04,2.2650000000003274
1856,2746.55,2.9700000000000273
1857,2748.53,0.7349999999996726
1858,2749.02,2.2350000000003547
1859,2750.51,3.0599999999999454
1860,2752.55,0.7049999999996999
1861,2753.02,2.2799999999999727
1862,2754.54,0.75
1863,2755.04,2.2200000000000273
1864,2756.52,0.7350000000003547
1865,2757.01,2.25
1866,2758.51,2.3099999999999454
1867,2760.05,1.4849999999996726
1868,2761.04,1.5150000000003274
1869,2762.05,1.4849999999996726
1870,2763.04,2.2799999999999727
1871,2764.56,2.9400000000000546
1872,2766.52,1.4850000000003547
1873,2767.51,2.25
1874,2769.01,1.544999999999618
1875,2770.04,3.75
1876,2772.54,0.8550000000002456
1877,2773.11,2.1149999999997817
1878,2774.52,0.7799999999999727
1879,2775.04,2.2799999999999727
1880,2776.56,0.7350000000003547
1881,2777.05,2.2349999999996726
1882,2778.54,0.8250000000002728
1883,2779.09,2.25
1884,2780.59,0.75
1885,2781.09,2.2349999999996726
1886,2782.58,0.6600000000000819
1887,2783.02,2.25
1888,2784.52,0.7350000000003547
1889,2785.01,1.6199999999998909
1890,2786.09,1.5
1891,2787.09,2.1900000000000546
1892,2788.55,0.7649999999996453
1893,2789.06,2.325000000000273
1894,2790.61,0.7799999999999727
1895,2791.13,1.4849999999996726
1896,2792.12,3.7350000000003547
1897,2794.61,0.6900000000000546
1898,2795.07,2.2049999999997
1899,2796.54,0.915000000000191
1900,2797.15,2.1149999999997817
1901,2798.56,3.089999999999918
1902,2800.62,0.75
1903,2801.12,2.339999999999918
1904,2802.68,0.75
1905,2803.18,1.3350000000004911
1906,2804.07,1.544999999999618
1907,2805.1,1.5899999999999181
1908,2806.16,1.290000000000191
1909,2807.02,2.3550000000002456
1910,2808.59,0.6449999999997544
1911,2809.02,2.3550000000002456
1912,2810.59,0.75
1913,2811.09,2.1149999999997817
1914,2812.5,0.8999999999998636
1915,2813.1,0.7799999999999727
1916,2813.62,2.25
1917,2815.12,2.205000000000382
1918,2816.59,2.2649999999996453
1919,2818.1,3.705000000000382
1920,2820.57,2.2349999999996726
1921,2822.06,1.5599999999999454
1922,2823.1,2.130000000000109
1923,2824.52,0.7650000000003274
1924,2825.03,2.2049999999997
1925,2826.5,3.7799999999999727
1926,2829.02,2.25
1927,2830.52,2.9850000000003547
1928,2832.51,0.75
1929,2833.01,2.25
1930,2834.51,0.7649999999996453
1931,2835.02,1.5
1932,2836.02,1.4850000000003547
1933,2837.01,2.294999999999618
1934,2838.54,0.705000000000382
1935,2839.01,2.2349999999996726
1936,2840.5,0.75
1937,2841.0,2.2799999999999727
1938,2842.52,0.7950000000003001
1939,2843.05,2.2649999999996453
1940,2844.56,0.8250000000002728
1941,2845.11,2.1449999999997544
1942,2846.54,0.6900000000000546
1943,2847.0,2.2650000000003274
1944,2848.51,3.044999999999618
1945,2850.54,2.2950000000003
1946,2852.07,1.4400000000000546
1947,2853.03,2.2200000000000273
1948,2854.51,0.8249999999995907
1949,2855.06,2.1900000000000546
1950,2856.52,0.7350000000003547
1951,2857.01,1.5149999999996453
1952,2858.02,1.5750000000002728
1953,2859.07,2.2200000000000273
1954,2860.55,2.9700000000000273
1955,2862.53,0.7049999999996999
1956,2863.0,1.6350000000002183
1957,2864.09,1.5299999999999727
1958,2865.11,1.3500000000001364
1959,2866.01,3.7349999999996726
1960,2868.5,0.8250000000002728
1961,2869.05,2.339999999999918
1962,2870.61,0.584999999999809
1963,2871.0,1.6350000000002183
1964,2872.09,1.544999999999618
1965,2873.12,2.085000000000491
1966,2874.51,0.8399999999999181
1967,2875.07,2.174999999999727
1968,2876.52,2.325000000000273
1969,2878.07,3.6900000000000546
1970,2880.53,3.0149999999996453
1971,2882.54,0.75
1972,2883.04,2.25
1973,2884.54,0.75
1974,2885.04,2.339999999999918
1975,2886.6,0.6300000000001091
1976,2887.02,2.2799999999999727
1977,2888.54,0.7200000000000273
1978,2889.02,2.3099999999999454
1979,2890.56,0.6900000000000546
1980,2891.02,2.2799999999999727
1981,2892.54,0.7650000000003274
1982,2893.05,2.3999999999998636
1983,2894.65,0.7799999999999727
1984,2895.17,2.0100000000002183
1985,2896.51,0.7349999999996726
1986,2897.0,2.2650000000003274
1987,2898.51,0.8849999999995362
1988,2899.1,2.25
1989,2900.6,0.705000000000382
1990,2901.07,1.5149999999996453
1991,2902.08,1.455000000000382
1992,2903.05,2.294999999999618
1993,2904.58,0.75
1994,2905.08,2.2200000000000273
1995,2906.56,0.7799999999999727
1996,2907.08,2.2350000000003547
1997,2908.57,0.8099999999999454
1998,2909.11,2.160000000000082
1999,2910.55,0.7649999999996453
2000,2911.06,2.25
2001,2912.56,0.75
2002,2913.06,1.4850000000003547
2003,2914.05,1.4400000000000546
2004,2915.01,2.2649999999996453
2005,2916.52,0.7799999999999727
2006,2917.04,2.1900000000000546
2007,2918.5,2.3099999999999454
2008,2920.04,1.4850000000003547
2009,2921.03,2.25
2010,2922.53,0.7649999999996453
2011,2923.04,2.25
2012,2924.54,0.705000000000382
2013,2925.01,2.339999999999918
2014,2926.57,0.6749999999997272
2015,2927.02,2.25
2016,2928.52,3.0150000000003274
2017,2930.53,0.75
2018,2931.03,2.2649999999996453
2019,2932.54,0.7650000000003274
2020,2933.05,2.1900000000000546
2021,2934.51,0.75
2022,2935.01,1.5
2023,2936.01,1.4849999999996726
2024,2937.0,2.2950000000003
2025,2938.53,2.9849999999996726
2026,2940.52,0.75
2027,2941.02,2.2799999999999727
2028,2942.54,2.205000000000382
2029,2944.01,3.7799999999999727
2030,2946.53,3.089999999999918
2031,2948.59,0.6749999999997272
2032,2949.04,2.2650000000003274
2033,2950.55,0.7349999999996726
2034,2951.04,2.2650000000003274
2035,2952.55,2.9849999999996726
2036,2954.54,0.8550000000002456
2037,2955.11,2.2049999999997
2038,2956.58,0.75
2039,2957.08,2.205000000000382
2040,2958.55,0.7049999999996999
2041,2959.02,1.7999999999997272
2042,2960.22,1.290000000000191
2043,2961.08,2.369999999999891
2044,2962.66,0.6300000000001091
2045,2963.08,2.1750000000004093
2046,2964.53,0.7049999999996999
2047,2965.0,1.5299999999999727
2048,2966.02,1.5299999999999727
2049,2967.04,2.2200000000000273
2050,2968.52,0.7200000000000273
2051,2969.0,2.3550000000002456
2052,2970.57,0.7649999999996453
2053,2971.08,2.2799999999999727
2054,2972.6,0.75
2055,2973.1,1.4250000000004093
2056,2974.05,1.5299999999999727
2057,2975.07,2.3099999999999454
2058,2976.61,2.9400000000000546
2059,2978.57,0.6449999999997544
2060,2979.0,2.25
2061,2980.5,0.7950000000003001
2062,2981.03,2.2200000000000273
2063,2982.51,0.794999999999618
2064,2983.04,2.3550000000002456
2065,2984.61,2.9700000000000273
2066,2986.59,2.910000000000082
2067,2988.53,0.8399999999999181
2068,2989.09,2.1900000000000546
2069,2990.55,3.1049999999995634
2070,2992.62,3.0150000000003274
2071,2994.63,0.75
2072,2995.13,1.3949999999997544
2073,2996.06,1.5150000000003274
2074,2997.07,1.4700000000000273
2075,2998.05,3.794999999999618
2076,3000.58,2.9850000000003547
2077,3002.57,0.6900000000000546
2078,3003.03,2.2049999999997
2079,3004.5,3.165000000000191
2080,3006.61,0.7649999999996453
2081,3007.12,2.130000000000109
2082,3008.54,0.8699999999998909
2083,3009.12,2.130000000000109
2084,3010.54,0.7950000000003001
2085,3011.07,1.5749999999995907
2086,3012.12,1.5
2087,3013.12,0.7350000000003547
2088,3013.61,2.1449999999997544
2089,3015.04,2.25
2090,3016.54,0.7350000000003547
2091,3017.03,2.3099999999999454
2092,3018.57,0.8099999999999454
2093,3019.11,2.084999999999809
2094,3020.5,0.8999999999998636
2095,3021.1,2.1900000000000546
2096,3022.56,0.9899999999997817
2097,3023.22,2.0700000000001637
2098,3024.6,0.7350000000003547
2099,3025.09,2.1449999999997544
2100,3026.52,3.375
2101,3028.77,2.6849999999999454
2102,3030.56,0.7350000000003547
2103,3031.05,2.2200000000000273
2104,3032.53,0.75
2105,3033.03,2.2349999999996726
2106,3034.52,0.7799999999999727
2107,3035.04,2.2950000000003
2108,3036.57,0.6749999999997272
2109,3037.02,2.3850000000002183
2110,3038.61,2.9700000000000273
2111,3040.59,2.160000000000082
2112,3042.03,2.9549999999997
2113,3044.0,1.5450000000003001
2114,3045.03,2.2200000000000273
2115,3046.51,0.8849999999995362
2116,3047.1,2.115000000000464
2117,3048.51,0.75
2118,3049.01,2.3099999999999454
2119,3050.55,0.8999999999998636
2120,3051.15,2.084999999999809
2121,3052.54,0.7950000000003001
2122,3053.07,2.3249999999995907
2123,3054.62,0.75
2124,3055.12,2.1750000000004093
2125,3056.57,0.8249999999995907
2126,3057.12,2.2200000000000273
2127,3058.6,2.880000000000109
2128,3060.52,0.7950000000003001
2129,3061.05,2.2200000000000273
2130,3062.53,2.9700000000000273
2131,3064.51,3.134999999999536
2132,3066.6,5.985000000000355
2133,3070.59,2.880000000000109
2134,3072.51,0.8849999999995362
2135,3073.1,2.2200000000000273
2136,3074.58,0.6600000000000819
2137,3075.02,2.2350000000003547
2138,3076.51,0.7649999999996453
2139,3077.02,2.369999999999891
2140,3078.6,0.6150000000004638
2141,3079.01,2.2799999999999727
2142,3080.53,0.7049999999996999
2143,3081.0,2.325000000000273
2144,3082.55,0.7799999999999727
2145,3083.07,2.25
2146,3084.57,0.6900000000000546
2147,3085.03,2.3249999999995907
2148,3086.58,2.9250000000004093
2149,3088.53,0.75
2150,3089.03,2.369999999999891
2151,3090.61,2.8949999999997544
2152,3092.54,2.2799999999999727
2153,3094.06,1.6350000000002183
2154,3095.15,2.0549999999998363
2155,3096.52,0.7650000000003274
2156,3097.03,2.369999999999891
2157,3098.61,2.880000000000109
2158,3100.53,0.8549999999995634
2159,3101.1,2.160000000000082
2160,3102.54,1.5899999999999181
2161,3103.6,2.115000000000464
2162,3105.01,2.3549999999995634
2163,3106.58,2.9850000000003547
2164,3108.57,2.8949999999997544
2165,3110.5,0.75
2166,3111.0,1.5
2167,3112.0,3.0150000000003274
2168,3114.01,1.5
2169,3115.01,2.369999999999891
2170,3116.59,0.6300000000001091
2171,3117.01,2.2649999999996453
2172,3118.52,0.75
2173,3119.02,2.2650000000003274
2174,3120.53,0.75
2175,3121.03,2.2799999999999727
2176,3122.55,0.7049999999996999
2177,3123.02,2.325000000000273
2178,3124.57,0.7200000000000273
2179,3125.05,1.6049999999995634
2180,3126.12,4.350000000000136
2181,3129.02,2.325000000000273
2182,3130.57,0.6900000000000546
2183,3131.03,2.2349999999996726
2184,3132.52,0.8250000000002728
2185,3133.07,2.3099999999999454
2186,3134.61,0.6749999999997272
2187,3135.06,2.205000000000382
2188,3136.53,3.0299999999999727
2189,3138.55,0.794999999999618
2190,3139.08,2.2200000000000273
2191,3140.56,0.6750000000004093
2192,3141.01,2.339999999999918
2193,3142.57,0.8849999999995362
2194,3143.16,2.0250000000005457
2195,3144.51,0.8699999999998909
2196,3145.09,0.8399999999999181
2197,3145.65,4.290000000000191
2198,3148.51,3.0149999999996453
2199,3150.52,0.7950000000003001
2200,3151.05,2.2200000000000273
2201,3152.53,0.8849999999995362
2202,3153.12,2.115000000000464
2203,3154.53,0.7049999999996999
2204,3155.0,0.7650000000003274
2205,3155.51,4.604999999999563
2206,3158.58,0.75
2207,3159.08,2.205000000000382
2208,3160.55,3.0749999999995907
2209,3162.6,0.6900000000000546
2210,3163.06,1.5599999999999454
2211,3164.1,1.3950000000004366
2212,3165.03,2.369999999999891
2213,3166.61,0.6749999999997272
2214,3167.06,2.325000000000273
2215,3168.61,0.6300000000001091
2216,3169.03,1.5
2217,3170.03,3.8549999999995634
2218,3172.6,2.880000000000109
2219,3174.52,0.7799999999999727
2220,3175.04,2.2950000000003
2221,3176.57,0.9899999999997817
2222,3177.23,2.0249999999998636
2223,3178.58,3.0
2224,3180.58,3.660000000000082
2225,3183.02,1.5
2226,3184.02,1.5750000000002728
2227,3185.07,1.5
2228,3186.07,1.6949999999994816
2229,3187.2,1.2150000000006003
2230,3188.01,1.5899999999999181
2231,3189.07,2.174999999999727
2232,3190.52,0.7650000000003274
2233,3191.03,1.5
2234,3192.03,1.4700000000000273
2235,3193.01,3.0149999999996453
2236,3195.02,2.2200000000000273
2237,3196.5,0.7799999999999727
2238,3197.02,2.2200000000000273
2239,3198.5,3.0599999999999454
2240,3200.54,0.705000000000382
2241,3201.01,2.25
2242,3202.51,2.294999999999618
2243,3204.04,3.0
2244,3206.04,1.4700000000000273
2245,3207.02,2.25
2246,3208.52,0.7950000000003001
2247,3209.05,2.2200000000000273
2248,3210.53,0.7049999999996999
2249,3211.0,2.2950000000003
2250,3212.53,0.7649999999996453
2251,3213.04,1.455000000000382
2252,3214.01,1.5599999999999454
2253,3215.05,1.4849999999996726
2254,3216.04,3.7650000000003274
2255,3218.55,0.794999999999618
2256,3219.08,2.1450000000004366
2257,3220.51,0.8549999999995634
2258,3221.08,2.205000000000382
2259,3222.55,0.7049999999996999
2260,3223.02,2.2350000000003547
2261,3224.51,0.7799999999999727
2262,3225.03,2.384999999999536
2263,3226.62,0.7200000000000273
2264,3227.1,2.205000000000382
2265,3228.57,0.7799999999999727
2266,3229.09,2.1900000000000546
2267,3230.55,3.0599999999999454
2268,3232.59,0.7649999999996453
2269,3233.1,2.1750000000004093
2270,3234.55,0.7049999999996999
2271,3235.02,1.6199999999998909
2272,3236.1,1.4700000000000273
2273,3237.08,2.160000000000082
2274,3238.52,0.8250000000002728
2275,3239.07,2.174999999999727
2276,3240.52,0.75
2277,3241.02,2.369999999999891
2278,3242.6,0.7200000000000273
2279,3243.08,2.1900000000000546
2280,3244.54,0.7350000000003547
2281,3245.03,12.0
2282,3253.03,0.8399999999999181
2283,3253.59,2.1149999999997817
2284,3255.0,2.339999999999918
2285,3256.56,0.7350000000003547
2286,3257.05,2.25
2287,3258.55,0.7349999999996726
2288,3259.04,2.25
2289,3260.54,0.705000000000382
2290,3261.01,2.2349999999996726
2291,3262.5,0.8099999999999454
2292,3263.04,1.6199999999998909
2293,3264.12,1.5899999999999181
2294,3265.18,5.055000000000518
2295,3268.55,0.7049999999996999
2296,3269.02,2.2950000000003
2297,3270.55,0.75
2298,3271.05,2.339999999999918
2299,3272.61,0.7049999999996999
2300,3273.08,2.2650000000003274
2301,3274.59,2.9400000000000546
2302,3276.55,2.9549999999997
2303,3278.52,0.7200000000000273
2304,3279.0,2.2799999999999727
2305,3280.52,3.0450000000003
2306,3282.55,0.7349999999996726
2307,3283.04,1.5150000000003274
2308,3284.05,3.7799999999999727
2309,3286.57,0.6600000000000819
2310,3287.01,1.5
2311,3288.01,1.5899999999999181
2312,3289.07,2.294999999999618
2313,3290.6,0.7350000000003547
2314,3291.09,1.3649999999997817
2315,3292.0,1.6499999999998636
2316,3293.1,1.4400000000000546
2317,3294.06,3.7350000000003547
2318,3296.55,0.7049999999996999
2319,3297.02,2.369999999999891
2320,3298.6,2.9250000000004093
2321,3300.55,0.7799999999999727
2322,3301.07,2.160000000000082
2323,3302.51,3.0
2324,3304.51,0.7349999999996726
2325,3305.0,2.415000000000191
2326,3306.61,0.6600000000000819
2327,3307.05,2.2200000000000273
2328,3308.53,0.7799999999999727
2329,3309.05,2.2649999999996453
2330,3310.56,0.75
2331,3311.06,0.7650000000003274
2332,3311.57,2.2799999999999727
2333,3313.09,2.2049999999997
2334,3314.56,0.6900000000000546
2335,3315.02,2.2650000000003274
2336,3316.53,2.9700000000000273
2337,3318.51,0.9149999999995089
2338,3319.12,2.1450000000004366
2339,3320.55,0.794999999999618
2340,3321.08,2.1900000000000546
2341,3322.54,0.8099999999999454
2342,3323.08,2.1900000000000546
2343,3324.54,2.3099999999999454
2344,3326.08,1.5299999999999727
2345,3327.1,2.115000000000464
2346,3328.51,3.0749999999995907
2347,3330.56,0.6900000000000546
2348,3331.02,1.5750000000002728
2349,3332.07,1.5
2350,3333.07,2.25
2351,3334.57,0.794999999999618
2352,3335.1,2.130000000000109
2353,3336.52,0.75
2354,3337.02,2.3550000000002456
2355,3338.59,0.7349999999996726
2356,3339.08,2.2799999999999727
2357,3340.6,0.7350000000003547
2358,3341.09,1.5
2359,3342.09,1.5749999999995907
2360,3343.14,1.4100000000000819
2361,3344.08,1.455000000000382
2362,3345.05,2.294999999999618
2363,3346.58,0.6750000000004093
2364,3347.03,1.5
2365,3348.03,3.9749999999994543
2366,3350.68,0.6300000000001091
2367,3351.1,1.3950000000004366
2368,3352.03,1.5149999999996453
2369,3353.04,2.205000000000382
2370,3354.51,0.8699999999998909
2371,3355.09,2.160000000000082
2372,3356.53,0.7200000000000273
2373,3357.01,2.5199999999997544
2374,3358.69,0.540000000000191
2375,3359.05,2.2649999999996453
2376,3360.56,0.6600000000000819
2377,3361.0,2.325000000000273
2378,3362.55,0.75
2379,3363.05,1.6499999999998636
2380,3364.15,3.5549999999998363
2381,3366.52,3.0150000000003274
2382,3368.53,0.794999999999618
2383,3369.06,2.2950000000003
2384,3370.59,0.7200000000000273
2385,3371.07,2.2799999999999727
2386,3372.59,2.924999999999727
2387,3374.54,0.7350000000003547
2388,3375.03,2.3099999999999454
2389,3376.57,0.8249999999995907
2390,3377.12,2.1000000000001364
2391,3378.52,0.8250000000002728
2392,3379.07,2.1900000000000546
2393,3380.53,0.7200000000000273
2394,3381.01,2.369999999999891
2395,3382.59,0.6300000000001091
2396,3383.01,2.3549999999995634
2397,3384.58,0.8699999999998909
2398,3385.16,2.085000000000491
2399,3386.55,0.8099999999999454
2400,3387.09,2.1449999999997544
2401,3388.52,0.75
2402,3389.02,2.3099999999999454
2403,3390.56,0.915000000000191
2404,3391.17,2.2799999999999727
2405,3392.69,2.1149999999997817
2406,3394.1,3.6900000000000546
2407,3396.56,0.7799999999999727
2408,3397.08,2.1750000000004093
2409,3398.53,0.7349999999996726
2410,3399.02,2.3550000000002456
2411,3400.59,0.6749999999997272
2412,3401.04,1.5150000000003274
2413,3402.05,1.4400000000000546
2414,3403.01,2.339999999999918
2415,3404.57,0.794999999999618
2416,3405.1,2.2350000000003547
2417,3406.59,0.6600000000000819
2418,3407.03,1.4700000000000273
2419,3408.01,1.7249999999994543
2420,3409.16,1.290000000000191
2421,3410.02,1.5899999999999181
2422,3411.08,0.6300000000001091
2423,3411.5,4.635000000000218
2424,3414.59,0.7349999999996726
2425,3415.08,2.1900000000000546
2426,3416.54,0.7200000000000273
2427,3417.02,2.3099999999999454
2428,3418.56,0.7650000000003274
2429,3419.07,0.6749999999997272
2430,3419.52,4.529999999999973
2431,3422.54,0.8250000000002728
2432,3423.09,2.2200000000000273
2433,3424.57,0.6749999999997272
2434,3425.02,3.0150000000003274
2435,3427.03,2.339999999999918
2436,3428.59,0.75
2437,3429.09,2.2349999999996726
2438,3430.58,0.6750000000004093
2439,3431.03,2.3099999999999454
2440,3432.57,0.6600000000000819
2441,3433.01,2.2799999999999727
2442,3434.53,0.7649999999996453
2443,3435.04,2.2200000000000273
2444,3436.52,0.8550000000002456
2445,3437.09,2.130000000000109
2446,3438.51,0.8699999999998909
2447,3439.09,2.2649999999996453
2448,3440.6,0.6000000000001364
2449,3441.0,2.2650000000003274
2450,3442.51,0.9149999999995089
2451,3443.12,0.7200000000000273
2452,3443.6,2.2650000000003274
2453,3445.11,2.2049999999997
2454,3446.58,0.8999999999998636
2455,3447.18,2.115000000000464
2456,3448.59,0.7049999999996999
2457,3449.06,2.160000000000082
2458,3450.5,0.7950000000003001
2459,3451.03,2.25
2460,3452.53,0.7049999999996999
2461,3453.0,2.339999999999918
2462,3454.56,0.7950000000003001
2463,3455.09,2.2200000000000273
2464,3456.57,0.6900000000000546
2465,3457.03,2.2200000000000273
2466,3458.51,0.7799999999999727
2467,3459.03,2.2649999999996453
2468,3460.54,0.8399999999999181
2469,3461.1,2.205000000000382
2470,3462.57,0.6749999999997272
2471,3463.02,2.325000000000273
2472,3464.57,2.910000000000082
2473,3466.51,0.75
2474,3467.01,2.25
2475,3468.51,0.7649999999996453
2476,3469.02,1.5
2477,3470.02,3.7799999999999727
2478,3472.54,3.0150000000003274
2479,3474.55,0.7200000000000273
2480,3475.03,0.7349999999996726
2481,3475.52,4.5
2482,3478.52,0.75
2483,3479.02,2.25
2484,3480.52,0.75
2485,3481.02,2.2350000000003547
2486,3482.51,0.794999999999618
2487,3483.04,2.3550000000002456
2488,3484.61,0.6000000000001364
2489,3485.01,2.4299999999998363
2490,3486.63,2.880000000000109
2491,3488.55,0.794999999999618
2492,3489.08,1.455000000000382
2493,3490.05,1.5299999999999727
2494,3491.07,0.7349999999996726
2495,3491.56,4.515000000000327
2496,3494.57,0.794999999999618
2497,3495.1,2.2650000000003274
2498,3496.61,0.6749999999997272
2499,3497.06,2.2200000000000273
2500,3498.54,0.8550000000002456
2501,3499.11,0.6900000000000546
2502,3499.57,4.484999999999673
2503,3502.56,0.7950000000003001
2504,3503.09,2.1900000000000546
2505,3504.55,0.7349999999996726
2506,3505.04,2.205000000000382
2507,3506.51,3.0599999999999454
2508,3508.55,0.8099999999999454
2509,3509.09,2.1449999999997544
2510,3510.52,0.7650000000003274
2511,3511.03,2.3549999999995634
2512,3512.6,0.6300000000001091
2513,3513.02,2.2350000000003547
2514,3514.51,3.044999999999618
2515,3516.54,0.8099999999999454
2516,3517.08,2.1900000000000546
2517,3518.54,3.0150000000003274
2518,3520.55,0.7200000000000273
2519,3521.03,2.369999999999891
2520,3522.61,0.6749999999997272
2521,3523.06,1.4700000000000273
2522,3524.04,3.839999999999918
2523,3526.6,0.6450000000004366
2524,3527.03,2.25
2525,3528.53,0.794999999999618
2526,3529.06,2.2650000000003274
2527,3530.57,0.794999999999618
2528,3531.1,2.325000000000273
2529,3532.65,2.8049999999998363
2530,3534.52,0.7650000000003274
2531,3535.03,2.3099999999999454
2532,3536.57,3.044999999999618
2533,3538.6,0.7350000000003547
2534,3539.09,2.3249999999995907
2535,3540.64,0.6450000000004366
2536,3541.07,1.4100000000000819
2537,3542.01,3.7649999999996453
2538,3544.52,0.7950000000003001
2539,3545.05,1.4849999999996726
2540,3546.04,1.4700000000000273
2541,3547.02,2.2950000000003
2542,3548.55,2.9549999999997
2543,3550.52,0.8099999999999454
2544,3551.06,2.2350000000003547
2545,3552.55,0.6749999999997272
2546,3553.0,1.6050000000002456
2547,3554.07,2.8949999999997544
2548,3556.0,1.6050000000002456
2549,3557.07,2.160000000000082
2550,3558.51,0.7349999999996726
2551,3559.0,2.2950000000003
2552,3560.53,0.7200000000000273
2553,3561.01,2.2649999999996453
2554,3562.52,0.7350000000003547
2555,3563.01,2.294999999999618
2556,3564.54,3.0
2557,3566.54,0.7350000000003547
2558,3567.03,2.2349999999996726
2559,3568.52,0.7950000000003001
2560,3569.05,1.4700000000000273
2561,3570.03,1.5299999999999727
2562,3571.05,2.25
2563,3572.55,0.75
2564,3573.05,2.2049999999997
2565,3574.52,0.7950000000003001
2566,3575.05,2.1900000000000546
2567,3576.51,3.044999999999618
2568,3578.54,0.7950000000003001
2569,3579.07,1.4400000000000546
2570,3580.03,1.6049999999995634
2571,3581.1,1.3650000000004638
2572,3582.01,1.5149999999996453
2573,3583.02,2.339999999999918
2574,3584.58,3.0
2575,3586.58,2.9850000000003547
2576,3588.57,0.75
2577,3589.07,0.7799999999999727
2578,3589.59,2.1449999999997544
2579,3591.02,2.325000000000273
2580,3592.57,0.7049999999996999
2581,3593.04,2.2350000000003547
2582,3594.53,3.0299999999999727
2583,3596.55,3.044999999999618
2584,3598.58,0.75
2585,3599.08,2.1750000000004093
2586,3600.53,2.3249999999995907
2587,3602.08,1.4100000000000819
2588,3603.02,2.325000000000273
2589,3604.57,0.6449999999997544
2590,3605.0,2.2799999999999727
2591,3606.52,0.8399999999999181
2592,3607.08,2.1450000000004366
2593,3608.51,3.089999999999918
2594,3610.57,3.0299999999999727
2595,3612.59,0.75
2596,3613.09,2.160000000000082
2597,3614.53,0.7049999999996999
2598,3615.0,2.369999999999891
2599,3616.58,0.6450000000004366
2600,3617.01,2.369999999999891
2601,3618.59,0.6600000000000819
2602,3619.03,2.3249999999995907
2603,3620.58,0.7200000000000273
2604,3621.06,2.3550000000002456
2605,3622.63,0.5549999999998363
2606,3623.0,2.2650000000003274
2607,3624.51,0.8849999999995362
2608,3625.1,1.4250000000004093
2609,3626.05,1.4400000000000546
2610,3627.01,2.3249999999995907
2611,3628.56,0.6750000000004093
2612,3629.01,2.384999999999536
2613,3630.6,0.6000000000001364
2614,3631.0,2.2650000000003274
2615,3632.51,0.8849999999995362
2616,3633.1,1.3950000000004366
2617,3634.03,3.7799999999999727
2618,3636.55,0.8099999999999454
2619,3637.09,2.1900000000000546
2620,3638.55,2.2799999999999727
2621,3640.07,1.5899999999999181
2622,3641.13,1.3649999999997817
2623,3642.04,1.4400000000000546
2624,3643.0,2.325000000000273
2625,3644.55,0.794999999999618
2626,3645.08,2.1450000000004366
2627,3646.51,0.8399999999999181
2628,3647.07,5.264999999999645
2629,3650.58,0.7350000000003547
2630,3651.07,2.1449999999997544
2631,3652.5,0.8699999999998909
2632,3653.08,2.25
2633,3654.58,0.6600000000000819
2634,3655.02,2.369999999999891
2635,3656.6,0.6000000000001364
2636,3657.0,2.3999999999998636
2637,3658.6,2.9850000000003547
2638,3660.59,0.7799999999999727
2639,3661.11,2.130000000000109
2640,3662.53,0.8549999999995634
2641,3663.1,2.1450000000004366
2642,3664.53,3.164999999999509
2643,3666.64,0.6000000000001364
2644,3667.04,2.1900000000000546
2645,3668.5,0.7950000000003001
2646,3669.03,2.25
2647,3670.53,0.7049999999996999
2648,3671.0,2.2650000000003274
2649,3672.51,0.75
2650,3673.01,2.339999999999918
2651,3674.57,3.0299999999999727
2652,3676.59,0.6600000000000819
2653,3677.03,2.3249999999995907
2654,3678.58,0.705000000000382
2655,3679.05,3.0599999999999454
2656,3681.09,2.294999999999618
2657,3682.62,2.9850000000003547
2658,3684.61,0.7200000000000273
2659,3685.09,2.1900000000000546
2660,3686.55,0.75
2661,3687.05,2.3099999999999454
2662,3688.59,0.7799999999999727
2663,3689.11,1.4849999999996726
2664,3690.1,1.5150000000003274
2665,3691.11,1.3649999999997817
2666,3692.02,2.2650000000003274
2667,3693.53,2.339999999999918
2668,3695.09,2.1449999999997544
2669,3696.52,0.8550000000002456
2670,3697.09,2.1149999999997817
2671,3698.5,2.4450000000001637
2672,3700.13,1.3200000000001637
2673,3701.01,2.3999999999998636
2674,3702.61,0.7349999999996726
2675,3703.1,2.160000000000082
2676,3704.54,0.705000000000382
2677,3705.01,3.089999999999918
2678,3707.07,2.25
2679,3708.57,0.7049999999996999
2680,3709.04,2.2350000000003547
2681,3710.53,3.1049999999995634
2682,3712.6,0.6450000000004366
2683,3713.03,0.8549999999995634
2684,3713.6,2.1900000000000546
2685,3715.06,2.2200000000000273
2686,3716.54,0.8099999999999454
2687,3717.08,2.205000000000382
2688,3718.55,0.794999999999618
2689,3719.08,2.2350000000003547
2690,3720.57,3.0149999999996453
2691,3722.58,0.7350000000003547
2692,3723.07,2.1900000000000546
2693,3724.53,0.75
2694,3725.03,1.4700000000000273
2695,3726.01,1.5899999999999181
2696,3727.07,2.160000000000082
2697,3728.51,3.0
2698,3730.51,0.8849999999995362
2699,3731.1,2.130000000000109
2700,3732.52,0.7200000000000273
2701,3733.0,2.3850000000002183
2702,3734.59,0.6749999999997272
2703,3735.04,2.1900000000000546
2704,3736.5,0.7650000000003274
2705,3737.01,2.25
2706,3738.51,0.7799999999999727
2707,3739.03,1.5
2708,3740.03,1.5
2709,3741.03,2.25
2710,3742.53,0.75
2711,3743.03,2.2349999999996726
2712,3744.52,0.7200000000000273
2713,3745.0,1.5599999999999454
2714,3746.04,1.5
2715,3747.04,2.2650000000003274
2716,3748.55,0.75
2717,3749.05,1.5
2718,3750.05,1.5
2719,3751.05,2.2049999999997
2720,3752.52,0.7200000000000273
2721,3753.0,2.3099999999999454
2722,3754.54,3.0150000000003274
2723,3756.55,0.9299999999998363
2724,3757.17,2.130000000000109
2725,3758.59,1.5
2726,3759.59,2.1449999999997544
2727,3761.02,2.3099999999999454
2728,3762.56,0.75
2729,3763.06,2.205000000000382
2730,3764.53,0.8399999999999181
2731,3765.09,2.130000000000109
2732,3766.51,0.8249999999995907
2733,3767.06,2.2650000000003274
2734,3768.57,0.7349999999996726
2735,3769.06,2.3099999999999454
2736,3770.6,0.6000000000001364
2737,3771.0,2.339999999999918
2738,3772.56,0.705000000000382
2739,3773.03,2.3549999999995634
2740,3774.6,2.9850000000003547
2741,3776.59,0.6900000000000546
2742,3777.05,2.294999999999618
2743,3778.58,3.0150000000003274
2744,3780.59,0.6749999999997272
2745,3781.04,2.2650000000003274
2746,3782.55,0.794999999999618
2747,3783.08,2.1450000000004366
2748,3784.51,0.7649999999996453
2749,3785.02,2.369999999999891
2750,3786.6,0.6300000000001091
2751,3787.02,2.25
2752,3788.52,0.8550000000002456
2753,3789.09,1.4249999999997272
2754,3790.04,1.5299999999999727
2755,3791.06,2.2799999999999727
2756,3792.58,0.7200000000000273
2757,3793.06,2.1900000000000546
2758,3794.52,0.8099999999999454
2759,3795.06,2.1750000000004093
2760,3796.51,0.75
2761,3797.01,1.544999999999618
2762,3798.04,1.4400000000000546
2763,3799.0,2.325000000000273
2764,3800.55,0.8399999999999181
2765,3801.11,2.1900000000000546
2766,3802.57,0.6749999999997272
2767,3803.02,2.2799999999999727
2768,3804.54,0.7799999999999727
2769,3805.06,1.5599999999999454
2770,3806.1,1.4850000000003547
2771,3807.09,0.6600000000000819
2772,3807.53,2.2049999999997
2773,3809.0,2.325000000000273
2774,3810.55,0.8249999999995907
2775,3811.1,1.4850000000003547
2776,3812.09,3.8099999999999454
2777,3814.63,3.0149999999996453
2778,3816.64,0.6300000000001091
2779,3817.06,2.415000000000191
2780,3818.67,0.6300000000001091
2781,3819.09,2.1900000000000546
2782,3820.55,0.7200000000000273
2783,3821.03,2.414999999999509
2784,3822.64,3.075000000000273
2785,3824.69,2.7300000000002456
2786,3826.51,0.7649999999996453
2787,3827.02,2.2650000000003274
2788,3828.53,0.7349999999996726
2789,3829.02,1.5
2790,3830.02,3.75
2791,3832.52,0.75
2792,3833.02,2.2350000000003547
2793,3834.51,0.75
2794,3835.01,2.294999999999618
2795,3836.54,2.2650000000003274
2796,3838.05,1.4400000000000546
2797,3839.01,2.3099999999999454
2798,3840.55,0.7649999999996453
2799,3841.06,2.1750000000004093
2800,3842.51,0.8849999999995362
2801,3843.1,2.1450000000004366
2802,3844.53,0.7200000000000273
2803,3845.01,1.6049999999995634
2804,3846.08,1.455000000000382
2805,3847.05,2.25
2806,3848.55,0.6900000000000546
2807,3849.01,2.3099999999999454
2808,3850.55,0.7049999999996999
2809,3851.02,2.2799999999999727
2810,3852.54,0.7200000000000273
2811,3853.02,2.325000000000273
2812,3854.57,0.8549999999995634
2813,3855.14,2.2200000000000273
2814,3856.62,2.9850000000003547
2815,3858.61,0.7799999999999727
2816,3859.13,2.2200000000000273
2817,3860.61,2.8500000000001364
2818,3862.51,0.7799999999999727
2819,3863.03,2.3549999999995634
2820,3864.6,0.75
2821,3865.1,1.3650000000004638
2822,3866.01,3.8999999999998636
2823,3868.61,0.6000000000001364
2824,3869.01,2.339999999999918
2825,3870.57,0.6749999999997272
2826,3871.02,2.3550000000002456
2827,3872.59,2.9849999999996726
2828,3874.58,0.75
2829,3875.08,2.3999999999998636
2830,3876.68,2.8200000000001637
2831,3878.56,3.089999999999918
2832,3880.62,0.6150000000004638
2833,3881.03,2.5199999999997544
2834,3882.71,0.584999999999809
2835,3883.1,2.2350000000003547
2836,3884.59,0.8999999999998636
2837,3885.19,2.2649999999996453
2838,3886.7,0.5100000000002183
2839,3887.04,2.325000000000273
2840,3888.59,0.8699999999998909
2841,3889.17,2.084999999999809
2842,3890.56,0.75
2843,3891.06,1.4700000000000273
2844,3892.04,1.4850000000003547
2845,3893.03,1.6049999999995634
2846,3894.1,3.839999999999918
2847,3896.66,0.5850000000004911
2848,3897.05,2.2200000000000273
2849,3898.53,0.8699999999998909
2850,3899.11,2.369999999999891
2851,3900.69,0.5700000000001637
2852,3901.07,2.339999999999918
2853,3902.63,0.7349999999996726
2854,3903.12,2.3550000000002456
2855,3904.69,0.584999999999809
2856,3905.08,2.1750000000004093
2857,3906.53,0.7049999999996999
2858,3907.0,2.25
2859,3908.5,0.8099999999999454
2860,3909.04,2.205000000000382
2861,3910.51,0.9299999999998363
2862,3911.13,2.1900000000000546
2863,3912.59,0.6300000000001091
2864,3913.01,2.3249999999995907
2865,3914.56,0.7650000000003274
2866,3915.07,2.339999999999918
2867,3916.63,0.6149999999997817
2868,3917.04,2.205000000000382
2869,3918.51,0.7649999999996453
2870,3919.02,2.2350000000003547
2871,3920.51,0.7799999999999727
2872,3921.03,2.2799999999999727
2873,3922.55,0.75
2874,3923.05,2.1900000000000546
2875,3924.51,0.7649999999996453
2876,3925.02,2.25
2877,3926.52,0.7799999999999727
2878,3927.04,0.7799999999999727
2879,3927.56,4.410000000000082
2880,3930.5,3.0599999999999454
2881,3932.54,0.75
2882,3933.04,2.415000000000191
2883,3934.65,0.6300000000001091
2884,3935.07,2.1449999999997544
2885,3936.5,2.325000000000273
2886,3938.05,1.5149999999996453
2887,3939.06,2.1750000000004093
2888,3940.51,3.2249999999994543
2889,3942.66,0.6000000000001364
2890,3943.06,2.4450000000001637
2891,3944.69,0.6000000000001364
2892,3945.09,2.160000000000082
2893,3946.53,3.1799999999998363
2894,3948.65,2.8949999999997544
2895,3950.58,0.75
2896,3951.08,2.415000000000191
2897,3952.69,0.6149999999997817
2898,3953.1,1.5150000000003274
2899,3954.11,1.5149999999996453
2900,3955.12,0.5850000000004911
2901,3955.51,2.294999999999618
2902,3957.04,0.8999999999998636
2903,3957.64,2.1000000000001364
2904,3959.04,1.6050000000002456
2905,3960.11,1.3649999999997817
2906,3961.02,2.415000000000191
2907,3962.63,0.6000000000001364
2908,3963.03,2.2649999999996453
2909,3964.54,0.75
2910,3965.04,2.549999999999727
2911,3966.74,2.8500000000001364
2912,3968.64,2.8050000000005184
2913,3970.51,0.9449999999994816
2914,3971.14,2.085000000000491
2915,3972.53,2.3999999999998636
2916,3974.13,1.5899999999999181
2917,3975.19,2.2200000000000273
2918,3976.67,0.6449999999997544
2919,3977.1,2.3850000000002183
2920,3978.69,0.6300000000001091
2921,3979.11,2.25
2922,3980.61,0.7349999999996726
2923,3981.1,2.3550000000002456
2924,3982.67,0.6300000000001091
2925,3983.09,2.2200000000000273
2926,3984.57,0.7649999999996453
2927,3985.08,2.325000000000273
2928,3986.63,3.0
2929,3988.63,0.6300000000001091
2930,3989.05,2.3549999999995634
2931,3990.62,0.6450000000004366
2932,3991.05,1.8599999999996726
2933,3992.29,1.334999999999809
2934,3993.18,2.1750000000004093
2935,3994.63,0.6300000000001091
2936,3995.05,2.3099999999999454
2937,3996.59,0.6449999999997544
2938,3997.02,1.5150000000003274
2939,3998.03,4.529999999999973
2940,4001.05,3.0749999999995907
2941,4003.1,2.25
2942,4004.6,0.8399999999999181
2943,4005.16,2.0700000000001637
2944,4006.54,2.9850000000003547
2945,4008.53,0.8099999999999454
2946,4009.07,0.6900000000000546
2947,4009.53,2.369999999999891
2948,4011.11,2.174999999999727
2949,4012.56,0.7350000000003547
2950,4013.05,2.25
2951,4014.55,0.8099999999999454
2952,4015.09,2.2049999999997
2953,4016.56,0.75
2954,4017.06,2.369999999999891
2955,4018.64,0.5850000000004911
2956,4019.03,2.2200000000000273
2957,4020.51,0.7349999999996726
2958,4021.0,2.4299999999998363
2959,4022.62,0.5850000000004911
2960,4023.01,1.6949999999994816
2961,4024.14,1.4250000000004093
2962,4025.09,2.2649999999996453
2963,4026.6,2.205000000000382
2964,4028.07,1.6199999999998909
2965,4029.15,2.0700000000001637
2966,4030.53,2.339999999999918
2967,4032.09,1.4849999999996726
2968,4033.08,2.25
2969,4034.58,3.0450000000003
2970,4036.61,0.7799999999999727
2971,4037.13,2.2200000000000273
2972,4038.61,0.7799999999999727
2973,4039.13,1.5599999999999454
2974,4040.17,3.5100000000002183
2975,4042.51,1.0349999999993997
2976,4043.2,1.9800000000002456
2977,4044.52,0.8999999999998636
2978,4045.12,2.3099999999999454
2979,4046.66,0.5100000000002183
2980,4047.0,2.4450000000001637
2981,4048.63,3.164999999999509
2982,4050.74,0.5550000000005184
2983,4051.11,2.3249999999995907
2984,4052.66,0.5550000000005184
2985,4053.03,2.339999999999918
2986,4054.59,1.1099999999996726
2987,4055.33,1.8600000000003547
2988,4056.57,3.164999999999509
2989,4058.68,0.540000000000191
2990,4059.04,1.5899999999999181
2991,4060.1,3.75
2992,4062.6,0.7650000000003274
2993,4063.11,2.2349999999996726
2994,4064.6,0.6900000000000546
2995,4065.06,2.205000000000382
2996,4066.53,0.8099999999999454
2997,4067.07,1.4100000000000819
2998,4068.01,1.6499999999998636
2999,4069.11,2.174999999999727
3000,4070.56,0.75
3001,4071.06,2.339999999999918
3002,4072.62,0.6300000000001091
3003,4073.04,2.3099999999999454
3004,4074.58,0.6450000000004366
3005,4075.01,1.6349999999995362
3006,4076.1,1.5299999999999727
3007,4077.12,2.2950000000003
3008,4078.65,2.790000000000191
3009,4080.51,0.9149999999995089
3010,4081.12,2.1750000000004093
3011,4082.57,2.294999999999618
3012,4084.1,1.4700000000000273
3013,4085.08,2.415000000000191
3014,4086.69,0.6449999999997544
3015,4087.12,2.160000000000082
3016,4088.56,0.7799999999999727
3017,4089.08,2.160000000000082
3018,4090.52,0.9450000000001637
3019,4091.15,2.0549999999998363
3020,4092.52,0.9299999999998363
3021,4093.14,2.1900000000000546
3022,4094.6,0.6150000000004638
3023,4095.01,1.5599999999999454
3024,4096.05,3.7349999999996726
3025,4098.54,2.955000000000382
3026,4100.51,2.6400000000003274
3027,4102.27,3.389999999998963
3028,4104.53,2.4450000000001637
3029,4106.16,1.2900000000008731
3030,4107.02,2.5199999999990723
3031,4108.7,0.45000000000027285
3032,4109.0,2.280000000000655
3033,4110.52,0.839999999999236
3034,4111.08,2.294999999999618
3035,4112.61,0.6900000000000546
3036,4113.07,2.25
3037,4114.57,0.8850000000002183
3038,4115.16,2.2349999999996726
3039,4116.65,3.0450000000009823
3040,4118.68,0.7049999999990177
3041,4119.15,2.085000000000491
3042,4120.54,0.8549999999995634
3043,4121.11,3.0450000000009823
3044,4123.14,2.0549999999998363
3045,4124.51,2.459999999999127
3046,4126.15,3.7950000000009823
3047,4128.68,0.6300000000001091
3048,4129.1,2.1149999999997817
3049,4130.51,0.9149999999995089
3050,4131.12,1.3649999999997817
3051,4132.03,1.5150000000003274
3052,4133.04,2.4299999999998363
3053,4134.66,0.6000000000008185
3054,4135.06,2.414999999999509
3055,4136.67,2.0999999999994543
3056,4138.07,1.6650000000008731
3057,4139.18,1.3800000000001091
3058,4140.1,1.5
3059,4141.1,2.3249999999989086
3060,4142.65,0.6000000000008185
3061,4143.05,2.25
3062,4144.55,3.0
3063,4146.55,3.075000000000273
3064,4148.6,0.5999999999994543
3065,4149.0,2.5200000000004366
3066,4150.68,2.294999999999618
3067,4152.21,1.2000000000002728
3068,4153.01,2.3850000000002183
3069,4154.6,0.884999999998854
3070,4155.19,2.1000000000008185
3071,4156.59,0.75
3072,4157.09,2.3850000000002183
3073,4158.68,0.5849999999991269
3074,4159.07,1.4850000000010368
3075,4160.06,1.4849999999996726
3076,4161.05,2.5199999999990723
3077,4162.73,0.6000000000008185
3078,4163.13,2.0549999999998363
3079,4164.5,0.9000000000005457
3080,4165.1,2.219999999999345
3081,4166.58,3.0900000000006003
3082,4168.64,0.884999999998854
3083,4169.23,1.1700000000009823
3084,4170.01,3.914999999999509
3085,4172.62,0.6450000000004366
3086,4173.05,2.339999999999236
3087,4174.61,3.1500000000005457
3088,4176.71,0.7799999999992906
3089,4177.23,0.6300000000001091
3090,4177.65,2.040000000000873
3091,4179.01,2.2650000000003274
3092,4180.52,3.8999999999991815
3093,4183.12,1.6500000000005457
3094,4184.22,1.3349999999991269
3095,4185.11,2.1750000000010914
3096,4186.56,0.8249999999989086
3097,4187.11,1.3350000000004911
3098,4188.0,1.6649999999995089
3099,4189.11,2.3400000000006003
3100,4190.67,0.6599999999993997
3101,4191.11,2.325000000000273
3102,4192.66,0.660000000000764
3103,4193.1,2.3099999999999454
3104,4194.64,0.6300000000001091
3105,4195.06,2.174999999999727
3106,4196.51,0.7650000000003274
3107,4197.02,1.5299999999992906
3108,4198.04,3.0150000000003274
3109,4200.05,3.6900000000000546
3110,4202.51,3.0150000000003274
3111,4204.52,3.0299999999992906
3112,4206.54,0.7349999999996726
3113,4207.03,2.280000000000655
3114,4208.55,0.794999999999618
3115,4209.08,2.3099999999999454
3116,4210.62,0.7349999999996726
3117,4211.11,2.3850000000002183
3118,4212.7,0.660000000000764
3119,4213.14,2.2799999999992906
3120,4214.66,0.8250000000002728
3121,4215.21,2.1149999999997817
3122,4216.62,0.6450000000004366
3123,4217.05,2.294999999999618
3124,4218.58,0.660000000000764
3125,4219.02,2.264999999998963
3126,4220.53,0.9899999999997817
3127,4221.19,1.3050000000012005
3128,4222.06,3.884999999998854
3129,4224.65,2.9400000000000546
3130,4226.61,0.6300000000001091
3131,4227.03,2.280000000000655
3132,4228.55,0.8099999999999454
3133,4229.09,2.1599999999993997
3134,4230.53,0.7200000000007094
3135,4231.01,2.2349999999996726
3136,4232.5,0.8699999999998909
3137,4233.08,2.280000000000655
3138,4234.6,0.6599999999993997
3139,4235.04,2.3850000000002183
3140,4236.63,0.5700000000001637
3141,4237.01,2.294999999999618
3142,4238.54,0.794999999999618
3143,4239.07,2.1900000000000546
3144,4240.53,3.8099999999999454
3145,4243.07,1.455000000000382
3146,4244.04,3.75
3147,4246.54,3.164999999999509
3148,4248.65,0.7350000000010368
3149,4249.14,2.0549999999998363
3150,4250.51,0.8099999999999454
3151,4251.05,2.25
3152,4252.55,3.0599999999999454
3153,4254.59,0.75
3154,4255.09,2.414999999999509
3155,4256.7,0.6300000000001091
3156,4257.12,2.280000000000655
3157,4258.64,0.75
3158,4259.14,1.5149999999989632
3159,4260.15,1.5150000000003274
3160,4261.16,1.2600000000002183
3161,4262.0,3.780000000000655
3162,4264.52,3.014999999998963
3163,4266.53,0.75
3164,4267.03,2.3400000000006003
3165,4268.59,0.7650000000003274
3166,4269.1,2.130000000000109
3167,4270.52,0.8549999999995634
3168,4271.09,1.3800000000001091
3169,4272.01,1.7399999999997817
3170,4273.17,1.3350000000004911
3171,4274.06,3.7349999999996726
3172,4276.55,0.8099999999999454
3173,4277.09,2.130000000000109
3174,4278.51,0.9299999999998363
3175,4279.13,2.085000000000491
3176,4280.52,3.0
3177,4282.52,0.8999999999991815
3178,4283.12,1.5750000000002728
3179,4284.17,1.5750000000002728
3180,4285.22,1.964999999999236
3181,4286.53,0.7800000000006548
3182,4287.05,2.3549999999995634
3183,4288.62,0.5850000000004911
3184,4289.01,2.2349999999996726
3185,4290.5,3.0599999999999454
3186,4292.54,3.1950000000001637
3187,4294.67,0.5250000000005457
3188,4295.02,2.3249999999989086
3189,4296.57,0.8250000000002728
3190,4297.12,2.160000000000764
3191,4298.56,0.8099999999999454
3192,4299.1,2.1599999999993997
3193,4300.54,0.8099999999999454
3194,4301.08,1.4400000000000546
3195,4302.04,1.6049999999995634
3196,4303.11,2.2200000000007094
3197,4304.59,0.6900000000000546
3198,4305.05,0.7199999999993452
3199,4305.53,2.3099999999999454
3200,4307.07,2.2200000000007094
3201,4308.55,0.794999999999618
3202,4309.08,2.1450000000004366
3203,4310.51,0.8099999999999454
3204,4311.05,2.325000000000273
3205,4312.6,0.6599999999993997
3206,4313.04,2.4000000000005457
3207,4314.64,2.834999999999127
3208,4316.53,0.7800000000006548
3209,4317.05,2.325000000000273
3210,4318.6,2.9549999999990177
3211,4320.57,0.9450000000001637
3212,4321.2,2.040000000000873
3213,4322.56,0.8999999999991815
3214,4323.16,1.2900000000008731
3215,4324.02,1.6799999999998363
3216,4325.14,2.2349999999996726
3217,4326.63,0.7349999999996726
3218,4327.12,2.085000000000491
3219,4328.51,3.089999999999236
3220,4330.57,0.75
3221,4331.07,2.25
3222,4332.57,0.8099999999999454
3223,4333.11,2.2650000000003274
3224,4334.62,0.6450000000004366
3225,4335.05,2.219999999999345
3226,4336.53,3.0150000000003274
3227,4338.54,0.6900000000000546
3228,4339.0,1.5
3229,4340.0,1.6049999999995634
3230,4341.07,2.2950000000009823
3231,4342.6,2.8949999999990723
3232,4344.53,0.7950000000009823
3233,4345.06,2.3099999999999454
3234,4346.6,0.7349999999996726
3235,4347.09,2.25
3236,4348.59,0.6900000000000546
3237,4349.05,2.219999999999345
3238,4350.53,0.9000000000005457
3239,4351.13,1.3049999999998363
3240,4352.0,1.544999999999618
3241,4353.03,2.205000000000382
3242,4354.5,0.9000000000005457
3243,4355.1,2.2349999999996726
3244,4356.59,0.7199999999993452
3245,4357.07,2.25
3246,4358.57,0.8400000000006003
3247,4359.13,2.1149999999997817
3248,4360.54,0.8400000000006003
3249,4361.1,2.2049999999990177
3250,4362.57,0.8850000000002183
3251,4363.16,2.2349999999996726
3252,4364.65,0.5400000000008731
3253,4365.01,2.339999999999236
3254,4366.57,0.75
3255,4367.07,2.205000000000382
3256,4368.54,2.9700000000007094
3257,4370.52,0.7199999999993452
3258,4371.0,2.2650000000003274
3259,4372.51,0.7650000000003274
3260,4373.02,2.264999999998963
3261,4374.53,0.7350000000010368
3262,4375.02,2.2349999999996726
3263,4376.51,0.7650000000003274
3264,4377.02,2.264999999998963
3265,4378.53,0.7350000000010368
3266,4379.02,2.25
3267,4380.52,3.0
3268,4382.52,0.7799999999992906
3269,4383.04,2.325000000000273
3270,4384.59,2.924999999999727
3271,4386.54,0.794999999999618
3272,4387.07,1.455000000000382
3273,4388.04,3.75
3274,4390.54,0.705000000000382
3275,4391.01,2.25
3276,4392.51,3.0
3277,4394.51,0.8699999999998909
3278,4395.09,0.7199999999993452
3279,4395.57,2.2950000000009823
3280,4397.1,2.2049999999990177
3281,4398.57,0.75
3282,4399.07,2.1900000000000546
3283,4400.53,0.7800000000006548
3284,4401.05,1.4400000000000546
3285,4402.01,1.5299999999992906
3286,4403.03,2.2950000000009823
3287,4404.56,0.6749999999997272
3288,4405.01,2.3850000000002183
3289,4406.6,0.6149999999997817
3290,4407.01,2.5799999999990177
3291,4408.73,1.2300000000009277
3292,4409.55,4.424999999999727
3293,4412.5,3.044999999999618
3294,4414.53,0.7950000000009823
3295,4415.06,2.294999999999618
3296,4416.59,0.6749999999997272
3297,4417.04,2.4299999999998363
3298,4418.66,0.6450000000004366
3299,4419.09,1.4400000000000546
3300,4420.05,1.4400000000000546
3301,4421.01,2.3549999999995634
3302,4422.58,3.044999999999618
3303,4424.61,0.705000000000382
3304,4425.08,2.2349999999996726
3305,4426.57,0.8850000000002183
3306,4427.16,2.174999999999727
3307,4428.61,0.6450000000004366
3308,4429.04,0.794999999999618
3309,4429.57,2.160000000000764
3310,4431.01,2.2650000000003274
3311,4432.52,0.7349999999996726
3312,4433.01,2.459999999999127
3313,4434.65,2.865000000001146
3314,4436.56,0.8249999999989086
3315,4437.11,2.1000000000008185
3316,4438.51,0.7349999999996726
3317,4439.0,2.4749999999994543
3318,4440.65,0.6900000000000546
3319,4441.11,2.1450000000004366
3320,4442.54,0.8549999999995634
3321,4443.11,2.1750000000010914
3322,4444.56,0.884999999998854
3323,4445.15,2.2200000000007094
3324,4446.63,0.6149999999997817
3325,4447.04,2.2200000000007094
3326,4448.52,3.014999999998963
3327,4450.53,0.7200000000007094
3328,4451.01,1.5750000000002728
3329,4452.06,3.839999999999236
3330,4454.62,3.6900000000000546
3331,4457.08,2.1450000000004366
3332,4458.51,3.9899999999997817
3333,4461.17,2.2650000000003274
3334,4462.68,0.5399999999995089
3335,4463.04,2.3850000000002183
3336,4464.63,0.794999999999618
3337,4465.16,2.130000000000109
3338,4466.58,0.9299999999998363
3339,4467.2,2.1149999999997817
3340,4468.61,0.8099999999999454
3341,4469.15,2.2200000000007094
3342,4470.63,0.6599999999993997
3343,4471.07,2.2950000000009823
3344,4472.6,3.2849999999993997
3345,4474.79,0.5250000000005457
3346,4475.14,1.3200000000001637
3347,4476.02,1.5299999999992906
3348,4477.04,2.2650000000003274
3349,4478.55,3.1499999999991815
3350,4480.65,0.5550000000012005
3351,4481.02,2.3099999999999454
3352,4482.56,3.0
3353,4484.56,0.7349999999996726
3354,4485.05,2.1900000000000546
3355,4486.51,0.9149999999995089
3356,4487.12,2.174999999999727
3357,4488.57,0.660000000000764
3358,4489.01,2.3999999999991815
3359,4490.61,0.6900000000000546
3360,4491.07,2.1900000000000546
3361,4492.53,0.8699999999998909
3362,4493.11,2.235000000001037
3363,4494.6,0.839999999999236
3364,4495.16,2.130000000000109
3365,4496.58,0.8699999999998909
3366,4497.16,2.1000000000008185
3367,4498.56,0.7649999999989632
3368,4499.07,2.415000000000873
3369,4500.68,0.5999999999994543
3370,4501.08,2.414999999999509
3371,4502.69,0.6000000000008185
3372,4503.09,2.2799999999992906
3373,4504.61,3.3000000000010914
3374,4506.81,2.7299999999995634
3375,4508.63,0.8099999999999454
3376,4509.17,2.0250000000005457
3377,4510.52,0.794999999999618
3378,4511.05,2.174999999999727
3379,4512.5,0.75
3380,4513.0,1.6799999999998363
3381,4514.12,0.9750000000008185
3382,4514.77,1.9799999999995634
3383,4516.09,1.4099999999993997
3384,4517.03,1.5599999999999454
3385,4518.07,1.4400000000000546
3386,4519.03,2.325000000000273
3387,4520.58,0.8850000000002183
3388,4521.17,1.6350000000002183
3389,4522.26,1.2000000000002728
3390,4523.06,2.219999999999345
3391,4524.54,0.8850000000002183
3392,4525.13,2.219999999999345
3393,4526.61,3.1050000000009277
3394,4528.68,0.5849999999991269
3395,4529.07,2.205000000000382
3396,4530.54,0.8850000000002183
3397,4531.13,2.0549999999998363
3398,4532.5,1.0349999999993997
3399,4533.19,2.0700000000001637
3400,4534.57,0.8699999999998909
3401,4535.15,2.0550000000012005
3402,4536.52,3.0749999999989086
3403,4538.57,2.2950000000009823
3404,4540.1,3.6149999999997817
3405,4542.51,0.8250000000002728
3406,4543.06,2.174999999999727
3407,4544.51,3.2849999999993997
3408,4546.7,2.924999999999727
3409,4548.65,2.790000000000873
3410,4550.51,3.0150000000003274
3411,4552.52,0.7649999999989632
3412,4553.03,2.25
3413,4554.53,0.75
3414,4555.03,2.205000000000382
3415,4556.5,0.794999999999618
3416,4557.03,2.2650000000003274
3417,4558.54,0.75
3418,4559.04,2.2200000000007094
3419,4560.52,0.75
3420,4561.02,2.25
3421,4562.52,0.8099999999999454
3422,4563.06,2.25
3423,4564.56,0.7199999999993452
3424,4565.04,1.6500000000005457
3425,4566.14,1.4099999999993997
3426,4567.08,2.2650000000003274
3427,4568.59,3.0299999999992906
3428,4570.61,0.615000000001146
3429,4571.02,2.414999999999509
3430,4572.63,0.6599999999993997
3431,4573.07,2.2650000000003274
3432,4574.58,0.7200000000007094
3433,4575.06,0.6749999999997272
3434,4575.51,2.325000000000273
3435,4577.06,1.6049999999995634
3436,4578.13,1.4099999999993997
3437,4579.07,1.410000000000764
3438,4580.01,1.5150000000003274
3439,4581.02,2.3099999999999454
3440,4582.56,0.7199999999993452
3441,4583.04,1.8150000000000546
3442,4584.25,2.835000000000491
3443,4586.14,3.539999999999509
3444,4588.5,3.119999999999891
3445,4590.58,0.7349999999996726
3446,4591.07,2.1900000000000546
3447,4592.53,3.165000000000873
3448,4594.64,3.089999999999236
3449,4596.7,0.5100000000002183
3450,4597.04,1.7999999999997272
3451,4598.24,1.2000000000002728
3452,4599.04,1.4700000000007094
3453,4600.02,1.5749999999989086
3454,4601.07,1.785000000000764
3455,4602.26,1.2600000000002183
3456,4603.1,2.1900000000000546
3457,4604.56,0.8099999999999454
3458,4605.1,2.339999999999236
3459,4606.66,0.660000000000764
3460,4607.1,2.3249999999989086
3461,4608.65,2.8500000000008185
3462,4610.55,0.8250000000002728
3463,4611.1,0.8099999999999454
3464,4611.64,2.1449999999990723
3465,4613.07,2.3099999999999454
3466,4614.61,1.4850000000010368
3467,4615.6,2.264999999998963
3468,4617.11,2.2200000000007094
3469,4618.59,0.6900000000000546
3470,4619.05,2.25
3471,4620.55,0.9299999999998363
3472,4621.17,2.0549999999998363
3473,4622.54,0.8250000000002728
3474,4623.09,2.1900000000000546
3475,4624.55,0.794999999999618
3476,4625.08,2.2349999999996726
3477,4626.57,2.25
3478,4628.07,1.5150000000003274
3479,4629.08,2.174999999999727
3480,4630.53,0.75
3481,4631.03,2.325000000000273
3482,4632.58,2.3549999999995634
3483,4634.15,1.3500000000008185
3484,4635.05,2.1900000000000546
3485,4636.51,0.9299999999998363
3486,4637.13,2.25
3487,4638.63,0.5549999999998363
3488,4639.0,2.549999999999727
3489,4640.7,0.5250000000005457
3490,4641.05,2.205000000000382
3491,4642.52,3.839999999999236
3492,4645.08,2.1450000000004366
3493,4646.51,0.7799999999992906
3494,4647.03,2.880000000000109
3495,4648.95,0.09000000000060027
3496,4649.01,1.5299999999992906
3497,4650.03,3.780000000000655
3498,4652.55,2.2799999999992906
3499,4654.07,2.8950000000004366
3500,4656.0,1.5300000000006548
3501,4657.02,2.3249999999989086
3502,4658.57,0.7200000000007094
3503,4659.05,2.325000000000273
3504,4660.6,0.6300000000001091
3505,4661.02,2.219999999999345
3506,4662.5,0.8400000000006003
3507,4663.06,2.1900000000000546
3508,4664.52,0.7799999999992906
3509,4665.04,2.3549999999995634
3510,4666.61,0.705000000000382
3511,4667.08,2.325000000000273
3512,4668.63,0.6149999999997817
3513,4669.04,2.2200000000007094
3514,4670.52,0.8249999999989086
3515,4671.07,2.235000000001037
3516,4672.56,0.884999999998854
3517,4673.15,2.205000000000382
3518,4674.62,0.6000000000008185
3519,4675.02,2.264999999998963
3520,4676.53,0.705000000000382
3521,4677.0,1.6950000000001637
3522,4678.13,1.3499999999994543
3523,4679.03,1.5750000000002728
3524,4680.08,1.455000000000382
3525,4681.05,2.219999999999345
3526,4682.53,0.7200000000007094
3527,4683.01,2.3999999999991815
3528,4684.61,0.705000000000382
3529,4685.08,1.4249999999997272
3530,4686.03,1.5
3531,4687.03,2.3099999999999454
3532,4688.57,0.75
3533,4689.07,0.660000000000764
3534,4689.51,4.619999999999891
3535,4692.59,0.7650000000003274
3536,4693.1,2.1449999999990723
3537,4694.53,0.8250000000002728
3538,4695.08,2.174999999999727
3539,4696.53,3.0450000000009823
3540,4698.56,0.75
3541,4699.06,2.294999999999618
3542,4700.59,2.219999999999345
3543,4702.07,1.410000000000764
3544,4703.01,1.6350000000002183
3545,4704.1,1.3949999999990723
3546,4705.03,2.235000000001037
3547,4706.52,0.75
3548,4707.02,1.5
3549,4708.02,1.5599999999999454
3550,4709.06,2.3549999999995634
3551,4710.63,2.8499999999994543
3552,4712.53,0.7800000000006548
3553,4713.05,2.325000000000273
3554,4714.6,0.7799999999992906
3555,4715.12,2.2200000000007094
3556,4716.6,0.75
3557,4717.1,2.1900000000000546
3558,4718.56,0.8249999999989086
3559,4719.11,2.1000000000008185
3560,4720.51,0.794999999999618
3561,4721.04,1.5
3562,4722.04,1.5150000000003274
3563,4723.05,2.2799999999992906
3564,4724.57,3.0450000000009823
3565,4726.6,0.6149999999997817
3566,4727.01,2.25
3567,4728.51,0.75
3568,4729.01,2.2349999999996726
3569,4730.5,0.8099999999999454
3570,4731.04,2.1900000000000546
3571,4732.5,0.7800000000006548
3572,4733.02,2.2349999999996726
3573,4734.51,0.75
3574,4735.01,2.2799999999992906
3575,4736.53,2.205000000000382
3576,4738.0,3.0150000000003274
3577,4740.01,1.5
3578,4741.01,1.5150000000003274
3579,4742.02,1.5
3580,4743.02,2.339999999999236
3581,4744.58,0.7650000000003274
3582,4745.09,2.294999999999618
3583,4746.62,0.6149999999997817
3584,4747.03,2.25
3585,4748.53,0.75
3586,4749.03,2.2950000000009823
3587,4750.56,0.7049999999990177
3588,4751.03,2.2200000000007094
3589,4752.51,0.794999999999618
3590,4753.04,2.205000000000382
3591,4754.51,3.0299999999992906
3592,4756.53,0.7800000000006548
3593,4757.05,1.455000000000382
3594,4758.02,1.4849999999996726
3595,4759.01,2.25
3596,4760.51,3.089999999999236
3597,4762.57,0.660000000000764
3598,4763.01,2.3099999999999454
3599,4764.55,0.8549999999995634
3600,4765.12,2.25
3601,4766.62,0.7200000000007094
3602,4767.1,2.2049999999990177
3603,4768.57,0.7350000000010368
3604,4769.06,2.3999999999991815
3605,4770.66,0.6749999999997272
3606,4771.11,1.365000000001146
3607,4772.02,3.7349999999996726
3608,4774.51,1.6649999999995089
3609,4775.62,2.1149999999997817
3610,4777.03,2.2950000000009823
3611,4778.56,0.7649999999989632
3612,4779.07,2.1900000000000546
3613,4780.53,0.7800000000006548
3614,4781.05,2.325000000000273
3615,4782.6,2.219999999999345
3616,4784.08,3.0
3617,4786.08,2.2650000000003274
3618,4787.59,4.395000000000437
3619,4790.52,0.8549999999995634
3620,4791.09,2.130000000000109
3621,4792.51,0.8250000000002728
3622,4793.06,2.2049999999990177
3623,4794.53,0.7350000000010368
3624,4795.02,2.2349999999996726
3625,4796.51,1.0050000000001091
3626,4797.18,2.0100000000002183
3627,4798.52,0.75
3628,4799.02,2.3249999999989086
3629,4800.57,3.7650000000003274
3630,4803.08,1.4400000000000546
3631,4804.04,3.7200000000007094
3632,4806.52,0.839999999999236
3633,4807.08,2.2200000000007094
3634,4808.56,0.75
3635,4809.06,2.2799999999992906
3636,4810.58,0.705000000000382
3637,4811.05,2.219999999999345
3638,4812.53,3.119999999999891
3639,4814.61,0.6300000000001091
3640,4815.03,2.205000000000382
3641,4816.5,0.7800000000006548
3642,4817.02,1.589999999999236
3643,4818.08,1.455000000000382
3644,4819.05,2.1900000000000546
3645,4820.51,0.7650000000003274
3646,4821.02,2.219999999999345
3647,4822.5,0.7650000000003274
3648,4823.01,2.2650000000003274
3649,4824.52,0.75
3650,4825.02,1.5299999999992906
3651,4826.04,1.455000000000382
3652,4827.01,2.2650000000003274
3653,4828.52,3.044999999999618
3654,4830.55,0.75
3655,4831.05,2.294999999999618
3656,4832.58,0.705000000000382
3657,4833.05,2.1900000000000546
3658,4834.51,0.7799999999992906
3659,4835.03,2.280000000000655
3660,4836.55,0.839999999999236
3661,4837.11,2.280000000000655
3662,4838.63,0.839999999999236
3663,4839.19,2.280000000000655
3664,4840.71,0.5700000000001637
3665,4841.09,2.2799999999992906
3666,4842.61,0.8400000000006003
3667,4843.17,2.085000000000491
3668,4844.56,0.8549999999995634
3669,4845.13,2.1149999999997817
3670,4846.54,0.8250000000002728
3671,4847.09,2.219999999999345
3672,4848.57,0.6750000000010914
3673,4849.02,2.2799999999992906
3674,4850.54,0.794999999999618
3675,4851.07,1.4250000000010914
3676,4852.02,1.5
3677,4853.02,2.2349999999996726
3678,4854.51,0.9149999999995089
3679,4855.12,2.174999999999727
3680,4856.57,0.7650000000003274
3681,4857.08,2.2200000000007094
3682,4858.56,0.7199999999993452
3683,4859.04,2.3549999999995634
3684,4860.61,0.75
3685,4861.11,1.365000000001146
3686,4862.02,1.544999999999618
3687,4863.05,2.1900000000000546
3688,4864.51,0.8850000000002183
3689,4865.1,2.339999999999236
3690,4866.66,0.5100000000002183
3691,4867.0,2.280000000000655
3692,4868.52,0.7349999999996726
3693,4869.01,2.3549999999995634
3694,4870.58,0.705000000000382
3695,4871.05,1.6799999999998363
3696,4872.17,1.3049999999998363
3697,4873.04,2.25
3698,4874.54,0.8250000000002728
3699,4875.09,2.205000000000382
3700,4876.56,0.7349999999996726
3701,4877.05,2.219999999999345
3702,4878.53,0.8250000000002728
3703,4879.08,2.2200000000007094
3704,4880.56,0.7199999999993452
3705,4881.04,2.3099999999999454
3706,4882.58,0.705000000000382
3707,4883.05,2.2349999999996726
3708,4884.54,0.7200000000007094
3709,4885.02,2.2349999999996726
3710,4886.51,0.794999999999618
3711,4887.04,2.280000000000655
3712,4888.56,0.7049999999990177
3713,4889.03,2.2650000000003274
3714,4890.54,3.0599999999999454
3715,4892.58,0.6450000000004366
3716,4893.01,2.3549999999995634
3717,4894.58,2.8950000000004366
3718,4896.51,3.1049999999995634
3719,4898.58,3.044999999999618
3720,4900.61,0.7200000000007094
3721,4901.09,1.4699999999993452
3722,4902.07,3.7650000000003274
3723,4904.58,0.9299999999998363
3724,4905.2,2.700000000000273
3725,4907.0,2.280000000000655
3726,4908.52,0.7349999999996726
3727,4909.01,2.2650000000003274
3728,4910.52,0.7199999999993452
3729,4911.0,2.25
3730,4912.5,3.0150000000003274
3731,4914.51,2.2650000000003274
3732,4916.02,1.4849999999996726
3733,4917.01,2.294999999999618
3734,4918.54,0.7200000000007094
3735,4919.02,2.264999999998963
3736,4920.53,0.7200000000007094
3737,4921.01,2.3099999999999454
3738,4922.55,0.8099999999999454
3739,4923.09,2.2349999999996726
3740,4924.58,3.0150000000003274
3741,4926.59,2.9099999999993997
3742,4928.53,3.1050000000009277
3743,4930.6,0.794999999999618
3744,4931.13,2.1599999999993997
3745,4932.57,0.8250000000002728
3746,4933.12,2.174999999999727
3747,4934.57,0.8099999999999454
3748,4935.11,2.1450000000004366
3749,4936.54,0.7200000000007094
3750,4937.02,1.589999999999236
3751,4938.08,1.455000000000382
3752,4939.05,2.205000000000382
3753,4940.52,0.7649999999989632
3754,4941.03,2.25
3755,4942.53,0.75
3756,4943.03,2.325000000000273
3757,4944.58,0.7200000000007094
3758,4945.06,2.25
3759,4946.56,0.75
3760,4947.06,1.589999999999236
3761,4948.12,3.6900000000000546
3762,4950.58,3.0150000000003274
3763,4952.59,2.8950000000004366
3764,4954.52,0.794999999999618
3765,4955.05,1.589999999999236
3766,4956.11,1.3800000000001091
3767,4957.03,2.280000000000655
3768,4958.55,0.6900000000000546
3769,4959.01,2.3850000000002183
3770,4960.6,0.7199999999993452
3771,4961.08,2.130000000000109
3772,4962.5,3.164999999999509
3773,4964.61,2.085000000000491
3774,4966.0,1.6199999999998909
3775,4967.08,1.4249999999997272
3776,4968.03,1.5450000000009823
3777,4969.06,2.2349999999996726
3778,4970.55,0.7349999999996726
3779,4971.04,2.294999999999618
3780,4972.57,2.9700000000007094
3781,4974.55,0.7199999999993452
3782,4975.03,2.235000000001037
3783,4976.52,1.544999999999618
3784,4977.55,2.174999999999727
3785,4979.0,2.4450000000001637
3786,4980.63,0.6900000000000546
3787,4981.09,2.1450000000004366
3788,4982.52,0.8249999999989086
3789,4983.07,2.160000000000764
3790,4984.51,0.8999999999991815
3791,4985.11,2.1750000000010914
3792,4986.56,0.7349999999996726
3793,4987.05,2.219999999999345
3794,4988.53,3.0900000000006003
3795,4990.59,0.794999999999618
3796,4991.12,2.2349999999996726
3797,4992.61,2.865000000001146
3798,4994.52,0.75
3799,4995.02,0.7799999999992906
3800,4995.54,2.4299999999998363
3801,4997.16,2.280000000000655
3802,4998.68,0.5999999999994543
3803,4999.08,2.1450000000004366
3804,5000.51,0.839999999999236
3805,5001.07,0.9150000000008731
3806,5001.68,2.130000000000109
3807,5003.1,2.2799999999992906
3808,5004.62,0.6900000000000546
3809,5005.08,2.3549999999995634
3810,5006.65,0.5700000000001637
3811,5007.03,1.5450000000009823
3812,5008.06,2.174999999999727
3813,5009.51,2.2650000000003274
3814,5011.02,2.639999999998963
3815,5012.78,1.9949999999998909
3816,5014.11,1.4250000000010914
3817,5015.06,2.384999999998854
3818,5016.65,2.9400000000000546
3819,5018.61,0.7350000000010368
3820,5019.1,2.1599999999993997
3821,5020.54,1.544999999999618
3822,5021.57,2.235000000001037
3823,5023.06,2.384999999998854
3824,5024.65,0.705000000000382
3825,5025.12,1.410000000000764
3826,5026.06,3.839999999999236
3827,5028.62,2.9700000000007094
3828,5030.6,1.0050000000001091
3829,5031.27,1.1399999999989632
3830,5032.03,3.7650000000003274
3831,5034.54,3.0900000000006003
3832,5036.6,0.6599999999993997
3833,5037.04,2.2349999999996726
3834,5038.53,0.8099999999999454
3835,5039.07,2.3099999999999454
3836,5040.61,0.6000000000008185
3837,5041.01,0.7650000000003274
3838,5041.52,2.2349999999996726
3839,5043.01,2.339999999999236
3840,5044.57,1.4400000000000546
3841,5045.53,3.9750000000008185
3842,5048.18,1.2749999999991815
3843,5049.03,1.4850000000010368
3844,5050.02,1.5299999999992906
3845,5051.04,2.3400000000006003
3846,5052.6,2.9849999999996726
3847,5054.59,0.8099999999999454
3848,5055.13,2.219999999999345
3849,5056.61,2.910000000000764
3850,5058.55,0.6900000000000546
3851,5059.01,0.794999999999618
3852,5059.54,2.3400000000006003
3853,5061.1,0.6300000000001091
3854,5061.52,2.339999999999236
3855,5063.08,2.174999999999727
3856,5064.53,0.7350000000010368
3857,5065.02,2.414999999999509
3858,5066.63,0.6599999999993997
3859,5067.07,2.1900000000000546
3860,5068.53,3.0150000000003274
3861,5070.54,3.044999999999618
3862,5072.57,0.8099999999999454
3863,5073.11,0.8099999999999454
3864,5073.65,7.410000000000764
3865,5078.59,2.369999999999891
3866,5080.17,3.539999999999509
3867,5082.53,2.2200000000007094
3868,5084.01,3.914999999999509
3869,5086.62,1.4400000000000546
3870,5087.58,2.160000000000764
3871,5089.02,2.3099999999999454
3872,5090.56,1.4699999999993452
3873,5091.54,2.3099999999999454
3874,5093.08,1.410000000000764
3875,5094.02,1.5
3876,5095.02,2.3099999999999454
3877,5096.56,0.7649999999989632
3878,5097.07,1.5599999999999454
3879,5098.11,2.910000000000764
3880,5100.05,3.9299999999998363
3881,5102.67,0.5700000000001637
3882,5103.05,2.2349999999996726
3883,5104.54,2.325000000000273
3884,5106.09,3.7349999999996726
3885,5108.58,0.6450000000004366
3886,5109.01,2.3850000000002183
3887,5110.6,0.6449999999990723
3888,5111.03,2.4750000000008185
3889,5112.68,0.7049999999990177
3890,5113.15,2.160000000000764
3891,5114.59,0.6599999999993997
3892,5115.03,2.3099999999999454
3893,5116.57,0.7650000000003274
3894,5117.08,2.205000000000382
3895,5118.55,3.164999999999509
3896,5120.66,2.0549999999998363
3897,5122.03,3.7950000000009823
3898,5124.56,0.6749999999997272
3899,5125.01,0.9299999999998363
3900,5125.63,7.529999999999291
3901,5130.65,0.7650000000003274
3902,5131.16,2.1000000000008185
3903,5132.56,0.6900000000000546
3904,5133.02,1.6499999999991815
3905,5134.12,1.4249999999997272
3906,5135.07,2.325000000000273
3907,5136.62,0.6450000000004366
3908,5137.05,2.3850000000002183
3909,5138.64,0.6749999999997272
3910,5139.09,2.4899999999997817
3911,5140.75,2.835000000000491
3912,5142.64,2.8049999999998363
3913,5144.51,0.9149999999995089
3914,5145.12,1.5300000000006548
3915,5146.14,1.4249999999997272
3916,5147.09,1.3950000000004366
3917,5148.02,3.9749999999994543
3918,5150.67,0.6300000000001091
3919,5151.09,1.544999999999618
3920,5152.12,1.5150000000003274
3921,5153.13,2.174999999999727
3922,5154.58,0.8850000000002183
3923,5155.17,2.0250000000005457
3924,5156.52,0.7799999999992906
3925,5157.04,2.2200000000007094
3926,5158.52,0.884999999998854
3927,5159.11,2.205000000000382
3928,5160.58,0.7650000000003274
3929,5161.09,1.3800000000001091
3930,5162.01,1.5299999999992906
3931,5163.03,0.8850000000002183
3932,5163.62,2.130000000000109
3933,5165.04,2.369999999999891
3934,5166.62,2.0700000000001637
3935,5168.0,3.1950000000001637
3936,5170.13,1.4400000000000546
3937,5171.09,2.219999999999345
3938,5172.57,0.8099999999999454
3939,5173.11,1.5300000000006548
3940,5174.13,3.5700000000001637
3941,5176.51,0.8850000000002183
3942,5177.1,1.544999999999618
3943,5178.13,3.5700000000001637
3944,5180.51,3.3299999999990177
3945,5182.73,2.9250000000010914
3946,5184.68,0.5249999999991815
3947,5185.03,2.2650000000003274
3948,5186.54,0.794999999999618
3949,5187.07,0.7800000000006548
3950,5187.59,4.515000000000327
3951,5190.6,2.2049999999990177
3952,5192.07,1.4850000000010368
3953,5193.06,2.339999999999236
3954,5194.62,5.864999999999782
3955,5198.53,1.035000000000764
3956,5199.22,2.039999999999509
3957,5200.58,0.794999999999618
3958,5201.11,1.5300000000006548
3959,5202.13,1.4699999999993452
3960,5203.11,2.25
3961,5204.61,0.7800000000006548
3962,5205.13,2.1149999999997817
3963,5206.54,2.2200000000007094
3964,5208.02,2.549999999999727
3965,5209.72,4.200000000000273
3966,5212.52,0.794999999999618
3967,5213.05,2.339999999999236
3968,5214.61,0.7800000000006548
3969,5215.13,1.5599999999999454
3970,5216.17,1.455000000000382
3971,5217.14,2.174999999999727
3972,5218.59,0.7799999999992906
3973,5219.11,0.6450000000004366
3974,5219.54,67.33500000000049
3975,5264.43,0.8999999999991815
3976,5265.03,2.369999999999891
3977,5266.61,2.25
3978,5268.11,1.5
3979,5269.11,0.6450000000004366
3980,5269.54,2.205000000000382
3981,5271.01,2.2650000000003274
3982,5272.52,2.9849999999996726
3983,5274.51,0.75
3984,5275.01,2.25
3985,5276.51,3.0
3986,5278.51,0.75
3987,5279.01,2.2650000000003274
3988,5280.52,6.794999999999618
3989,5285.05,1.4400000000000546
3990,5286.01,1.5299999999992906
3991,5287.03,0.7350000000010368
3992,5287.52,2.3099999999999454
3993,5289.06,2.1900000000000546
3994,5290.52,0.7799999999992906
3995,5291.04,2.1900000000000546
3996,5292.5,5.265000000000327
3997,5296.01,1.5599999999999454
3998,5297.05,2.219999999999345
3999,5298.53,0.8099999999999454
4000,5299.07,1.5
4001,5300.07,1.455000000000382
4002,5301.04,2.2200000000007094
4003,5302.52,1.5
