,BIT_DEPTH,RATE_OF_PENETRATION,HOOK_LOAD,DIFFERENTIAL_PRESSURE,WEIGHT_ON_BIT,DRILL_BIT_ID,DRILL_BIT_NAME,CPR,CPF,CPH,NEXT_DEPTH,NEXT_RATE,PREV_ID,DEPTH_INTERVAL,TIME_INTERVAL,cost
0,242.59,596.1,71.1,0.0,1.11,1,Apollo,1000,4.0,2500,243.23,419.9,,0.6399999999999864,0.04150531202818317,1106.323280070458
1,243.23,419.9,72.2,47.0,0.0,1,Apollo,1000,4.0,2500,244.5,189.1,1.0,1.2700000000000102,0.0030245296499166715,12.64132412479172
2,244.5,189.1,71.8,80.0,0.4,1,Apollo,1000,4.0,2500,246.76,191.6,1.0,2.259999999999991,0.011951348492860872,38.91837123215214
3,246.76,191.6,72.6,57.0,0.0,1,Apollo,1000,4.0,2500,248.5,194.2,1.0,1.740000000000009,0.009081419624217166,29.66354906054295
4,248.5,194.2,62.7,156.0,9.5,1,Apollo,1000,4.0,2500,249.17,205.0,1.0,0.6699999999999875,0.003450051493305806,11.305128733264464
5,249.17,205.0,59.2,243.0,13.2,1,Apollo,1000,4.0,2500,250.68,242.2,1.0,1.5100000000000193,0.007365853658536679,24.454634146341775
6,250.68,242.2,59.3,213.0,12.9,1,Apollo,1000,4.0,2500,252.19,242.7,1.0,1.509999999999991,0.00623451692815851,21.62629232039624
7,252.19,242.7,58.3,252.0,13.9,1,Apollo,1000,4.0,2500,252.98,250.1,1.0,0.789999999999992,0.003255047383601121,11.29761845900277
8,252.98,250.1,64.41,167.0,7.9,1,Apollo,1000,4.0,2500,254.53,254.9,1.0,1.5500000000000114,0.006197520991603404,21.693802479008554
9,254.53,254.9,61.6,332.0,9.2,1,Apollo,1000,4.0,2500,256.07,255.8,1.0,1.539999999999992,0.006041584935268701,21.263962338171723
10,256.07,255.8,57.9,303.0,14.4,1,Apollo,1000,4.0,2500,256.88,256.3,1.0,0.8100000000000023,0.003166536356528547,11.156340891321376
11,256.88,256.3,59.6,239.0,12.7,1,Apollo,1000,4.0,2500,258.48,262.8,1.0,1.6000000000000227,0.006242684354272426,22.006710885681155
12,258.48,262.8,58.7,198.0,13.5,1,Apollo,1000,4.0,2500,260.08,265.61,1.0,1.599999999999966,0.006088280060882671,21.620700152206542
13,260.08,265.61,60.0,222.0,12.2,1,Apollo,1000,4.0,2500,260.92,265.7,1.0,0.8400000000000318,0.0031625315311924695,11.266328827981301
14,260.92,265.7,62.2,240.0,10.1,1,Apollo,1000,4.0,2500,262.42,252.1,1.0,1.5,0.005645464809936019,20.113662024840046
15,262.42,252.1,61.7,310.0,10.5,1,Apollo,1000,4.0,2500,263.2,248.5,1.0,0.7799999999999727,0.003094010313367603,10.855025783418899
16,263.2,248.5,62.3,196.0,9.9,1,Apollo,1000,4.0,2500,264.7,248.6,1.0,1.5,0.006036217303822938,21.090543259557343
17,264.7,248.6,62.4,268.0,9.7,1,Apollo,1000,4.0,2500,266.21,249.1,1.0,1.509999999999991,0.006074014481094091,21.22503620273519
18,266.21,249.1,65.41,140.0,6.8,1,Apollo,1000,4.0,2500,267.0,250.6,1.0,0.7900000000000205,0.0031714171015657187,11.088542753914378
19,267.0,250.6,64.8,199.0,6.9,1,Apollo,1000,4.0,2500,268.53,252.9,1.0,1.5299999999999727,0.006105347166799571,21.38336791699882
20,268.53,252.9,65.0,161.0,7.2,1,Apollo,1000,4.0,2500,270.06,252.9,1.0,1.5300000000000296,0.006049822064057056,21.24455516014276
21,270.06,252.9,62.4,288.0,9.81,1,Apollo,1000,4.0,2500,270.92,260.2,1.0,0.8600000000000136,0.0034005535784895754,11.941383946223993
22,270.92,260.2,64.3,260.0,8.1,1,Apollo,1000,4.0,2500,272.62,272.3,1.0,1.6999999999999886,0.006533435818601032,23.133589546502535
23,272.62,272.3,59.0,179.0,13.3,1,Apollo,1000,4.0,2500,274.26,279.7,1.0,1.6399999999999864,0.006022769004774096,21.616922511935186
24,274.26,279.7,61.1,337.0,11.0,1,Apollo,1000,4.0,2500,275.06,272.11,1.0,0.8000000000000114,0.002860207365034006,10.35051841258506
25,275.06,272.11,58.7,224.0,12.6,1,Apollo,1000,4.0,2500,278.21,389.2,1.0,3.1499999999999773,0.01157620080114651,41.540502002866184
26,278.21,389.2,53.5,207.0,20.0,1,Apollo,1000,4.0,2500,278.76,308.7,1.0,0.5500000000000114,0.0014131551901336366,5.732887975334137
27,278.76,308.7,64.6,93.0,8.81,1,Apollo,1000,4.0,2500,280.67,207.8,1.0,1.910000000000025,0.006187236799481779,23.10809199870455
28,280.67,207.8,60.7,239.0,12.5,1,Apollo,1000,4.0,2500,282.11,235.2,1.0,1.4399999999999977,0.006929740134744935,23.08435033686233
29,282.11,235.2,58.6,248.0,14.8,1,Apollo,1000,4.0,2500,282.89,245.8,1.0,0.7799999999999727,0.003316326530612129,11.410816326530213
30,282.89,245.8,58.8,371.0,14.4,1,Apollo,1000,4.0,2500,284.4,249.8,1.0,1.509999999999991,0.006143205858421443,21.39801464605357
31,284.4,249.8,63.6,247.0,9.7,1,Apollo,1000,4.0,2500,285.2,251.2,1.0,0.8000000000000114,0.003202562049639757,11.206405124099438
32,285.2,251.2,62.0,237.0,12.1,1,Apollo,1000,4.0,2500,286.27,293.2,1.0,1.0699999999999932,0.004259554140127362,14.928885350318376
33,286.27,293.2,58.8,283.0,14.5,1,Apollo,1000,4.0,2500,287.37,331.1,1.0,1.1000000000000227,0.0037517053206003502,13.779263301500967
34,287.37,331.1,61.6,304.0,11.7,1,Apollo,1000,4.0,2500,290.59,349.3,1.0,3.2199999999999704,0.009725158562367775,37.19289640591932
35,290.59,349.3,57.3,329.0,16.0,1,Apollo,1000,4.0,2500,292.05,360.4,1.0,1.4600000000000364,0.004179788147724123,16.289470369310454
36,292.05,360.4,60.6,323.0,13.0,1,Apollo,1000,4.0,2500,292.81,355.8,1.0,0.7599999999999909,0.002108768035516068,8.311920088790133
37,292.81,355.8,61.2,349.0,12.3,1,Apollo,1000,4.0,2500,293.81,339.0,1.0,1.0,0.0028105677346824056,11.026419336706013
38,293.81,339.0,60.2,273.0,13.1,1,Apollo,1000,4.0,2500,294.89,345.3,1.0,1.079999999999984,0.0031858407079645547,12.284601769911323
39,294.89,345.3,61.2,262.0,12.1,1,Apollo,1000,4.0,2500,295.9,344.4,1.0,1.009999999999991,0.0029249927599188847,11.352481899797176
40,295.9,344.4,59.8,273.0,13.8,1,Apollo,1000,4.0,2500,300.12,340.5,1.0,4.220000000000027,0.012253193960511114,47.512984901277896
41,300.12,340.5,52.4,455.0,20.9,1,Apollo,1000,4.0,2500,305.03,1073.6,1.0,4.909999999999968,0.014419970631424282,55.68992657856057
42,305.03,1073.6,75.8,50.0,0.9,1,Apollo,1000,4.0,2500,305.51,1073.6,1.0,0.4800000000000182,0.00044709388971685745,3.0377347242922164
43,305.51,1073.6,75.2,5.0,1.4,1,Apollo,1000,4.0,2500,307.19,0.0,1.0,1.6800000000000068,0.0015648286140089484,10.632071535022398
44,307.19,0.0,57.0,301.0,16.5,1,Apollo,1000,4.0,2500,308.89,505.2,1.0,1.6999999999999886,0.0,6.7999999999999545
45,308.89,505.2,76.41,0.0,0.4,1,Apollo,1000,4.0,2500,309.19,658.5,1.0,0.30000000000001137,0.0005938242280285261,2.684560570071361
46,309.19,658.5,76.5,153.0,0.2,1,Apollo,1000,4.0,2500,310.57,382.8,1.0,1.3799999999999955,0.0020956719817767583,10.759179954441878
47,310.57,382.8,63.3,311.0,13.6,1,Apollo,1000,4.0,2500,310.75,185.5,1.0,0.18000000000000682,0.00047021943573669495,1.8955485893417647
48,310.75,185.5,67.0,207.0,10.2,1,Apollo,1000,4.0,2500,312.08,246.2,1.0,1.329999999999984,0.007169811320754632,23.244528301886515
49,312.08,246.2,64.41,261.0,12.4,1,Apollo,1000,4.0,2500,312.89,254.7,1.0,0.8100000000000023,0.0032900081234768577,11.465020308692154
50,312.89,254.7,62.8,404.0,13.7,1,Apollo,1000,4.0,2500,314.74,283.11,1.0,1.8500000000000227,0.007263447192775905,25.558617981939854
51,314.74,283.11,62.2,310.0,14.7,1,Apollo,1000,4.0,2500,315.05,305.4,1.0,0.3100000000000023,0.001094980749531992,3.977451873829989
52,315.05,305.4,60.7,365.0,16.0,1,Apollo,1000,4.0,2500,315.75,329.6,1.0,0.6999999999999886,0.002292075965946263,8.530189914865613
53,315.75,329.6,61.7,317.0,15.1,1,Apollo,1000,4.0,2500,316.9,355.1,1.0,1.1499999999999773,0.003489077669902843,13.322694174757016
54,316.9,355.1,61.3,311.0,15.5,1,Apollo,1000,4.0,2500,317.99,364.9,1.0,1.0900000000000318,0.0030695578710223364,12.033894677555967
55,317.99,364.9,66.5,224.0,11.3,1,Apollo,1000,4.0,2500,319.17,374.2,1.0,1.1800000000000068,0.0032337626747054177,12.80440668676357
56,319.17,374.2,64.0,387.0,12.6,1,Apollo,1000,4.0,2500,320.38,381.0,1.0,1.2099999999999795,0.0032335649385354876,12.923912346338637
57,320.38,381.0,67.1,251.0,9.7,1,Apollo,1000,4.0,2500,321.05,343.7,1.0,0.6700000000000159,0.0017585301837270758,7.076325459317753
58,321.05,343.7,59.5,309.0,17.2,1,Apollo,1000,4.0,2500,322.0,393.0,1.0,0.9499999999999886,0.002764038405586234,10.71009601396554
59,322.0,393.0,65.5,313.0,11.3,1,Apollo,1000,4.0,2500,322.86,405.7,1.0,0.8600000000000136,0.0021882951653944367,8.910737913486146
60,322.86,405.7,61.3,291.0,15.4,1,Apollo,1000,4.0,2500,324.59,412.8,1.0,1.7299999999999613,0.0042642346561497695,17.58058664037427
61,324.59,412.8,59.9,334.0,20.8,1,Apollo,1000,4.0,2500,325.17,393.1,1.0,0.5800000000000409,0.0014050387596900216,5.8325968992252175
62,325.17,393.1,61.3,438.0,15.6,1,Apollo,1000,4.0,2500,326.58,337.2,1.0,1.4099999999999682,0.0035868735690663144,14.607183922665659
63,326.58,337.2,56.4,346.0,20.3,1,Apollo,1000,4.0,2500,328.54,370.0,1.0,1.9600000000000364,0.005812574139976383,22.371435349941102
64,328.54,370.0,56.1,429.0,20.7,1,Apollo,1000,4.0,2500,329.01,378.2,1.0,0.46999999999997044,0.0012702702702701903,5.055675675675358
65,329.01,378.2,61.7,473.0,15.4,1,Apollo,1000,4.0,2500,329.86,406.8,1.0,0.8500000000000227,0.0022474881015336406,9.018720253834193
66,329.86,406.8,52.6,523.0,19.3,1,Apollo,1000,4.0,2500,331.07,415.3,1.0,1.2099999999999795,0.0029744346116027027,12.276086529006676
67,331.07,415.3,55.9,426.0,20.9,1,Apollo,1000,4.0,2500,335.78,354.4,1.0,4.7099999999999795,0.011341199133156704,47.19299783289168
68,335.78,354.4,55.3,357.0,23.6,1,Apollo,1000,4.0,2500,340.54,336.6,1.0,4.760000000000048,0.013431151241535124,52.617878103838
69,340.54,336.6,60.3,354.0,17.8,1,Apollo,1000,4.0,2500,342.4,307.4,1.0,1.8599999999999568,0.005525846702317162,21.254616755792732
70,342.4,307.4,61.3,480.0,20.6,1,Apollo,1000,4.0,2500,344.3,311.5,1.0,1.900000000000034,0.006180871828236936,23.052179570592475
71,344.3,311.5,60.2,352.0,21.2,1,Apollo,1000,4.0,2500,346.34,334.1,1.0,2.0399999999999636,0.0065489566613160955,24.532391653290095
72,346.34,334.1,64.6,410.0,19.61,1,Apollo,1000,4.0,2500,347.19,313.11,1.0,0.8500000000000227,0.002544148458545414,9.760371146363624
73,347.19,313.11,56.5,530.0,24.8,1,Apollo,1000,4.0,2500,348.57,312.5,1.0,1.3799999999999955,0.004407396761521495,16.53849190380372
74,348.57,312.5,62.7,295.0,17.9,1,Apollo,1000,4.0,2500,349.37,322.8,1.0,0.8000000000000114,0.0025600000000000366,9.600000000000136
75,349.37,322.8,63.7,299.0,17.61,1,Apollo,1000,4.0,2500,350.54,325.0,1.0,1.170000000000016,0.0036245353159851793,13.741338289963013
76,350.54,325.0,62.8,292.0,18.4,1,Apollo,1000,4.0,2500,351.12,315.7,1.0,0.5799999999999841,0.0017846153846153355,6.781538461538275
77,351.12,315.7,61.5,292.0,19.0,1,Apollo,1000,4.0,2500,352.5,325.0,1.0,1.3799999999999955,0.004371238517579966,16.448096293949895
78,352.5,325.0,67.8,268.0,13.7,1,Apollo,1000,4.0,2500,353.16,325.0,1.0,0.660000000000025,0.0020307692307693077,7.716923076923369
79,353.16,325.0,71.8,309.0,9.9,1,Apollo,1000,4.0,2500,354.1,325.11,1.0,0.9399999999999977,0.0028923076923076853,10.990769230769203
80,354.1,325.11,72.2,208.0,10.8,1,Apollo,1000,4.0,2500,355.12,325.2,1.0,1.0199999999999818,0.003137399649349395,11.923499123373414
81,355.12,325.2,69.2,257.0,12.3,1,Apollo,1000,4.0,2500,356.02,310.0,1.0,0.8999999999999773,0.0027675276752766828,10.518819188191616
82,356.02,310.0,67.1,425.0,13.2,1,Apollo,1000,4.0,2500,356.97,310.9,1.0,0.9500000000000455,0.0030645161290324048,11.461290322581194
83,356.97,310.9,70.7,234.0,10.8,1,Apollo,1000,4.0,2500,357.93,304.2,1.0,0.9599999999999795,0.0030878095850755214,11.559523962688722
84,357.93,304.2,66.91,255.0,14.1,1,Apollo,1000,4.0,2500,358.9,315.5,1.0,0.9699999999999704,0.003188691650230015,11.85172912557492
85,358.9,315.5,63.9,464.0,19.4,1,Apollo,1000,4.0,2500,360.0,333.7,1.0,1.1000000000000227,0.003486529318542069,13.116323296355263
86,360.0,333.7,63.8,411.0,17.61,1,Apollo,1000,4.0,2500,361.1,341.0,1.0,1.1000000000000227,0.0032963739886125946,12.640934971531577
87,361.1,341.0,63.5,313.0,18.3,1,Apollo,1000,4.0,2500,362.52,350.5,1.0,1.419999999999959,0.004164222873900173,16.090557184750267
88,362.52,350.5,64.41,423.0,17.0,1,Apollo,1000,4.0,2500,363.22,350.0,1.0,0.7000000000000455,0.001997146932953054,7.7928673323828175
89,363.22,350.0,57.0,456.0,23.8,1,Apollo,1000,4.0,2500,365.11,322.2,1.0,1.8899999999999864,0.005399999999999961,21.059999999999846
90,365.11,322.2,56.2,645.0,25.3,1,Apollo,1000,4.0,2500,365.97,291.61,1.0,0.8600000000000136,0.0026691495965239405,10.112873991309906
91,365.97,291.61,59.1,562.0,28.6,1,Apollo,1000,4.0,2500,366.78,276.3,1.0,0.8099999999999454,0.0027776825211753555,10.18420630293817
92,366.78,276.3,63.2,444.0,18.4,1,Apollo,1000,4.0,2500,369.02,309.2,1.0,2.240000000000009,0.008107129931234199,29.227824828085534
93,369.02,309.2,60.9,502.0,20.7,1,Apollo,1000,4.0,2500,370.78,332.6,1.0,1.759999999999991,0.0056921086675290776,21.27027166882266
94,370.78,332.6,55.7,478.0,26.8,1,Apollo,1000,4.0,2500,372.58,259.2,1.0,1.8000000000000114,0.00541190619362601,20.72976548406507
95,372.58,259.2,69.6,356.0,14.6,1,Apollo,1000,4.0,2500,374.54,272.7,1.0,1.9600000000000364,0.00756172839506187,26.74432098765482
96,374.54,272.7,66.7,305.0,15.0,1,Apollo,1000,4.0,2500,375.12,280.7,1.0,0.5799999999999841,0.0021268793546020686,7.637198386505108
97,375.12,280.7,68.91,435.0,14.8,1,Apollo,1000,4.0,2500,376.01,284.9,1.0,0.8899999999999864,0.003170644816530055,11.486612041325083
98,376.01,284.9,69.5,475.0,14.2,1,Apollo,1000,4.0,2500,376.93,296.2,1.0,0.9200000000000159,0.0032292032292032856,11.753008073008278
99,376.93,296.2,64.91,339.0,15.9,1,Apollo,1000,4.0,2500,377.94,312.3,1.0,1.009999999999991,0.0034098582039162424,12.56464550979057
100,377.94,312.3,62.6,487.0,21.1,1,Apollo,1000,4.0,2500,379.01,321.2,1.0,1.0699999999999932,0.003426192763368534,12.845481908421307
101,379.01,321.2,58.4,394.0,22.3,1,Apollo,1000,4.0,2500,380.04,340.5,1.0,1.0300000000000296,0.00320672478206734,12.136811955168469
102,380.04,340.5,63.9,442.0,17.8,1,Apollo,1000,4.0,2500,381.2,356.2,1.0,1.1599999999999682,0.0034067547723934453,13.156886930983486
103,381.2,356.2,58.2,445.0,24.3,1,Apollo,1000,4.0,2500,382.27,365.9,1.0,1.0699999999999932,0.0030039303761931306,11.7898259404828
104,382.27,365.9,53.0,561.0,27.6,1,Apollo,1000,4.0,2500,384.66,379.8,1.0,2.390000000000043,0.0065318393003554066,25.88959825088869
105,384.66,379.8,53.3,494.0,30.0,1,Apollo,1000,4.0,2500,385.11,371.5,1.0,0.44999999999998863,0.0011848341232227188,4.762085308056752
106,385.11,371.5,57.1,651.0,24.6,1,Apollo,1000,4.0,2500,388.07,378.3,1.0,2.9599999999999795,0.007967698519515422,31.759246298788476
107,388.07,378.3,58.9,574.0,25.9,1,Apollo,1000,4.0,2500,389.24,373.1,1.0,1.170000000000016,0.003092783505154681,12.411958762886766
108,389.24,373.1,59.1,514.0,24.6,1,Apollo,1000,4.0,2500,390.39,371.2,1.0,1.1499999999999773,0.003082283570088387,12.305708925220877
109,390.39,371.2,57.8,502.0,24.0,1,Apollo,1000,4.0,2500,394.53,361.4,1.0,4.139999999999986,0.011153017241379274,44.44254310344813
110,394.53,361.4,56.9,464.0,26.7,1,Apollo,1000,4.0,2500,397.88,363.4,1.0,3.3500000000000227,0.009269507470946384,36.57376867736605
111,397.88,363.4,54.2,485.0,29.5,1,Apollo,1000,4.0,2500,398.95,356.8,1.0,1.0699999999999932,0.0029444138690148413,11.641034672537076
112,398.95,356.8,62.5,517.0,24.6,1,Apollo,1000,4.0,2500,400.06,362.6,1.0,1.1100000000000136,0.0031109865470852396,12.217466367713154
113,400.06,362.6,53.3,508.0,30.4,1,Apollo,1000,4.0,2500,404.56,322.7,1.0,4.5,0.012410369553226695,49.02592388306674
114,404.56,322.7,59.5,430.0,25.1,1,Apollo,1000,4.0,2500,406.6,325.61,1.0,2.0400000000000205,0.006321660985435453,23.96415246358871
115,406.6,325.61,63.7,661.0,21.2,1,Apollo,1000,4.0,2500,408.48,313.61,1.0,1.8799999999999955,0.005773778446607891,21.95444611651971
116,408.48,313.61,64.1,420.0,21.4,1,Apollo,1000,4.0,2500,410.47,316.3,1.0,1.990000000000009,0.0063454609228022355,23.823652307005624
117,410.47,316.3,60.5,441.0,24.2,1,Apollo,1000,4.0,2500,413.12,166.0,1.0,2.6499999999999773,0.008378122036041661,31.545305090104062
118,413.12,166.0,57.7,555.0,30.6,1,Apollo,1000,4.0,2500,414.0,237.8,1.0,0.8799999999999955,0.0053012048192770805,16.773012048192683
119,414.0,237.8,63.4,456.0,20.6,1,Apollo,1000,4.0,2500,414.75,293.5,1.0,0.75,0.003153910849453322,10.884777123633306
120,414.75,293.5,59.4,393.0,24.6,1,Apollo,1000,4.0,2500,415.74,331.5,1.0,0.9900000000000091,0.003373083475298157,12.39270868824543
121,415.74,331.5,63.4,394.0,21.2,1,Apollo,1000,4.0,2500,417.08,334.5,1.0,1.339999999999975,0.004042232277526319,15.4655806938157
122,417.08,334.5,64.91,481.0,19.61,1,Apollo,1000,4.0,2500,418.72,315.9,1.0,1.6400000000000432,0.004902840059790862,18.817100149477326
123,418.72,315.9,65.91,434.0,18.8,1,Apollo,1000,4.0,2500,419.01,322.61,1.0,0.2899999999999636,0.0009180120291230252,3.4550300728074177
124,419.01,322.61,60.6,447.0,24.0,1,Apollo,1000,4.0,2500,420.66,320.4,1.0,1.650000000000034,0.0051145345773535664,19.386336443384053
125,420.66,320.4,68.3,448.0,16.4,1,Apollo,1000,4.0,2500,421.04,323.0,1.0,0.37999999999999545,0.0011860174781522955,4.485043695380721
126,421.04,323.0,66.91,416.0,17.8,1,Apollo,1000,4.0,2500,422.67,321.4,1.0,1.6299999999999955,0.005046439628482958,19.136099071207376
127,422.67,321.4,68.91,318.0,17.4,1,Apollo,1000,4.0,2500,424.31,274.11,1.0,1.6399999999999864,0.005102675793403816,19.316689483509485
128,424.31,274.11,64.1,554.0,20.7,1,Apollo,1000,4.0,2500,425.14,275.8,1.0,0.8299999999999841,0.0030279814672940935,10.88995366823517
129,425.14,275.8,57.7,417.0,24.2,1,Apollo,1000,4.0,2500,426.06,277.3,1.0,0.9200000000000159,0.0033357505438724286,12.019376359681136
130,426.06,277.3,55.5,552.0,29.0,1,Apollo,1000,4.0,2500,428.07,326.5,1.0,2.009999999999991,0.007248467363865817,26.161168409664505
131,428.07,326.5,61.7,497.0,23.0,1,Apollo,1000,4.0,2500,429.12,332.4,1.0,1.0500000000000114,0.0032159264931087635,12.239816232771954
132,429.12,332.4,59.9,498.0,24.7,1,Apollo,1000,4.0,2500,430.06,320.5,1.0,0.9399999999999977,0.002827918170878453,10.829795427196123
133,430.06,320.5,62.6,617.0,25.3,1,Apollo,1000,4.0,2500,430.98,314.7,1.0,0.9200000000000159,0.0028705148205928734,10.856287051482248
134,430.98,314.7,65.2,557.0,19.7,1,Apollo,1000,4.0,2500,432.03,314.5,1.0,1.0499999999999545,0.0033365109628215907,12.541277407053794
135,432.03,314.5,58.3,492.0,26.2,1,Apollo,1000,4.0,2500,432.88,318.7,1.0,0.8500000000000227,0.002702702702702775,10.156756756757028
136,432.88,318.7,59.4,450.0,25.2,1,Apollo,1000,4.0,2500,434.12,290.3,1.0,1.240000000000009,0.0038908064010041076,14.687016002510305
137,434.12,290.3,62.4,275.0,24.0,1,Apollo,1000,4.0,2500,435.04,295.4,1.0,0.9200000000000159,0.003169135377196059,11.602838442990212
138,435.04,295.4,64.7,444.0,22.0,1,Apollo,1000,4.0,2500,436.74,286.11,1.0,1.6999999999999886,0.005754908598510456,21.187271496276097
139,436.74,286.11,59.2,286.0,27.6,1,Apollo,1000,4.0,2500,437.01,287.5,1.0,0.2699999999999818,0.0009436929852154129,3.4392324630384596
140,437.01,287.5,63.9,324.0,23.3,1,Apollo,1000,4.0,2500,438.52,289.2,1.0,1.509999999999991,0.005252173913043446,19.17043478260858
141,438.52,289.2,68.3,307.0,18.61,1,Apollo,1000,4.0,2500,440.51,269.8,1.0,1.990000000000009,0.006881051175657017,25.162627939142578
142,440.51,269.8,63.4,477.0,23.5,1,Apollo,1000,4.0,2500,441.14,286.8,1.0,0.6299999999999955,0.002335063009636751,8.35765752409186
143,441.14,286.8,63.4,368.0,23.7,1,Apollo,1000,4.0,2500,442.13,306.2,1.0,0.9900000000000091,0.003451882845188316,12.589707112970826
144,442.13,306.2,59.2,429.0,27.2,1,Apollo,1000,4.0,2500,443.06,315.3,1.0,0.9300000000000068,0.0030372305682560643,11.313076420640188
145,443.06,315.3,64.91,396.0,22.0,1,Apollo,1000,4.0,2500,444.59,260.8,1.0,1.5299999999999727,0.0048525214081825965,18.251303520456382
146,444.59,260.8,62.7,386.0,20.7,1,Apollo,1000,4.0,2500,446.09,239.7,1.0,1.5,0.005751533742331288,20.378834355828218
147,446.09,239.7,62.4,471.0,25.5,1,Apollo,1000,4.0,2500,446.79,241.6,1.0,0.7000000000000455,0.002920317062995601,10.100792657489183
148,446.79,241.6,64.6,420.0,23.0,1,Apollo,1000,4.0,2500,448.5,236.6,1.0,1.7099999999999795,0.007077814569536339,24.534536423840766
149,448.5,236.6,60.5,372.0,23.1,1,Apollo,1000,4.0,2500,449.04,221.4,1.0,0.5400000000000205,0.0022823330515639073,7.865832628909851
150,449.04,221.4,59.3,436.0,27.5,1,Apollo,1000,4.0,2500,450.55,184.3,1.0,1.509999999999991,0.006820234869015315,23.09058717253825
151,450.55,184.3,74.2,205.0,12.6,1,Apollo,1000,4.0,2500,452.39,292.61,1.0,1.839999999999975,0.009983722192077996,32.31930548019489
152,452.39,292.61,68.5,245.0,18.11,1,Apollo,1000,4.0,2500,454.5,304.3,1.0,2.1100000000000136,0.007210963398380142,26.46740849595041
153,454.5,304.3,77.6,101.0,9.2,1,Apollo,1000,4.0,2500,455.19,304.4,1.0,0.6899999999999977,0.002267499178442319,8.428747946105789
154,455.19,304.4,78.1,95.0,8.7,1,Apollo,1000,4.0,2500,455.53,304.3,1.0,0.339999999999975,0.0011169513797633871,4.152378449408367
155,455.53,304.3,77.41,85.0,9.4,1,Apollo,1000,4.0,2500,457.23,304.4,1.0,1.7000000000000455,0.005586592178771099,20.76648044692793
156,457.23,304.4,75.41,232.0,11.7,1,Apollo,1000,4.0,2500,458.83,294.0,1.0,1.599999999999966,0.005256241787122096,19.540604467805103
157,458.83,294.0,74.5,123.0,12.4,1,Apollo,1000,4.0,2500,460.67,304.2,1.0,1.8400000000000318,0.0062585034013606525,23.00625850340176
158,460.67,304.2,74.2,149.0,12.7,1,Apollo,1000,4.0,2500,461.01,304.3,1.0,0.339999999999975,0.0011176857330702664,4.154214332675566
159,461.01,304.3,74.3,234.0,12.5,1,Apollo,1000,4.0,2500,462.57,304.0,1.0,1.5600000000000023,0.005126519881695702,19.056299704239265
160,462.57,304.0,77.5,197.0,8.7,1,Apollo,1000,4.0,2500,464.31,291.5,1.0,1.740000000000009,0.005723684210526345,21.2692105263159
161,464.31,291.5,76.1,31.0,11.1,1,Apollo,1000,4.0,2500,465.15,287.7,1.0,0.839999999999975,0.002881646655231475,10.564116638078588
162,465.15,287.7,80.6,228.0,9.81,1,Apollo,1000,4.0,2500,466.52,268.8,1.0,1.3700000000000045,0.004761904761904778,17.384761904761962
163,466.52,268.8,81.1,211.0,9.4,1,Apollo,1000,4.0,2500,467.07,271.9,1.0,0.5500000000000114,0.0020461309523809946,7.315327380952532
164,467.07,271.9,79.8,311.0,12.7,1,Apollo,1000,4.0,2500,468.74,274.9,1.0,1.670000000000016,0.006141963957337316,22.034909893343354
165,468.74,274.9,78.8,240.0,11.8,1,Apollo,1000,4.0,2500,469.05,275.11,1.0,0.3100000000000023,0.0011276827937431878,4.059206984357979
166,469.05,275.11,79.5,377.0,10.8,1,Apollo,1000,4.0,2500,470.51,289.2,1.0,1.4599999999999795,0.005306968121842098,19.107420304605164
167,470.51,289.2,78.3,314.0,12.2,1,Apollo,1000,4.0,2500,472.35,303.2,1.0,1.8400000000000318,0.006362378976486971,23.265947441217556
168,472.35,303.2,79.41,238.0,11.0,1,Apollo,1000,4.0,2500,474.27,316.61,1.0,1.919999999999959,0.006332453825857384,23.5111345646433
169,474.27,316.61,78.6,294.0,11.9,1,Apollo,1000,4.0,2500,475.23,312.3,1.0,0.9600000000000364,0.003032121537538411,11.420303843846174
170,475.23,312.3,78.8,265.0,11.7,1,Apollo,1000,4.0,2500,476.51,302.9,1.0,1.2799999999999727,0.004098623118795942,15.366557796989746
171,476.51,302.9,71.6,389.0,19.8,1,Apollo,1000,4.0,2500,477.18,319.0,1.0,0.6700000000000159,0.002211951138989818,8.209877847474608
172,477.18,319.0,73.2,382.0,17.3,1,Apollo,1000,4.0,2500,478.58,329.4,1.0,1.3999999999999773,0.004388714733542249,16.571786833855533
173,478.58,329.4,75.2,397.0,16.8,1,Apollo,1000,4.0,2500,479.18,329.6,1.0,0.6000000000000227,0.0018214936247723823,6.953734061931047
174,479.18,329.6,77.41,316.0,16.3,1,Apollo,1000,4.0,2500,480.57,329.7,1.0,1.3899999999999864,0.0042172330097086964,16.103082524271684
175,480.57,329.7,72.91,384.0,17.5,1,Apollo,1000,4.0,2500,481.16,320.9,1.0,0.5900000000000318,0.0017895056111617588,6.833764027904524
176,481.16,320.9,75.7,384.0,14.6,1,Apollo,1000,4.0,2500,482.27,329.0,1.0,1.1099999999999568,0.0034590215020254187,13.087553755063373
177,482.27,329.0,74.7,381.0,12.3,1,Apollo,1000,4.0,2500,483.23,329.8,1.0,0.9600000000000364,0.0029179331306991986,11.134832826748141
178,483.23,329.8,78.41,411.0,12.7,1,Apollo,1000,4.0,2500,484.56,320.7,1.0,1.329999999999984,0.004032747119466295,15.401867798665673
179,484.56,320.7,77.7,283.0,15.4,1,Apollo,1000,4.0,2500,485.23,330.0,1.0,0.6700000000000159,0.002089179918927396,7.902949797318554
180,485.23,330.0,72.5,418.0,17.9,1,Apollo,1000,4.0,2500,486.63,320.8,1.0,1.3999999999999773,0.0042424242424241735,16.20606060606034
181,486.63,320.8,77.2,287.0,9.2,1,Apollo,1000,4.0,2500,487.23,330.6,1.0,0.6000000000000227,0.0018703241895262554,7.0758104738157295
182,487.23,330.6,80.1,329.0,10.3,1,Apollo,1000,4.0,2500,488.26,330.1,1.0,1.0299999999999727,0.0031155474894131053,11.908868723532654
183,488.26,330.1,80.6,264.0,9.4,1,Apollo,1000,4.0,2500,489.22,330.2,1.0,0.9600000000000364,0.0029082096334445205,11.110524083611446
184,489.22,330.2,79.6,365.0,10.9,1,Apollo,1000,4.0,2500,489.51,330.1,1.0,0.2899999999999636,0.0008782556026649414,3.3556390066622077
185,489.51,330.1,77.0,408.0,13.2,1,Apollo,1000,4.0,2500,492.25,329.9,1.0,2.740000000000009,0.008300514995455949,31.711287488639908
186,492.25,329.9,77.1,378.0,13.3,1,Apollo,1000,4.0,2500,494.25,342.0,1.0,2.0,0.006062443164595332,23.15610791148833
187,494.25,342.0,66.6,383.0,23.7,1,Apollo,1000,4.0,2500,496.42,343.5,1.0,2.170000000000016,0.006345029239766128,24.542573099415385
188,496.42,343.5,63.2,478.0,20.7,1,Apollo,1000,4.0,2500,497.24,321.8,1.0,0.8199999999999932,0.0023871906841338958,9.247976710334711
189,497.24,321.8,65.7,461.0,24.7,1,Apollo,1000,4.0,2500,498.31,319.9,1.0,1.0699999999999932,0.0033250466128029624,12.592616532007378
190,498.31,319.9,75.1,386.0,15.4,1,Apollo,1000,4.0,2500,500.43,350.4,1.0,2.1200000000000045,0.006627070959674914,25.047677399187304
191,500.43,350.4,75.8,330.0,14.5,1,Apollo,1000,4.0,2500,502.55,350.1,1.0,2.1200000000000045,0.006050228310502296,23.60557077625576
192,502.55,350.1,67.7,442.0,22.7,1,Apollo,1000,4.0,2500,504.16,277.2,1.0,1.6100000000000136,0.004598686089688699,17.9367152242218
193,504.16,277.2,66.41,444.0,28.7,1,Apollo,1000,4.0,2500,504.91,243.5,1.0,0.75,0.002705627705627706,9.764069264069265
194,504.91,243.5,64.1,622.0,26.3,1,Apollo,1000,4.0,2500,506.66,275.7,1.0,1.75,0.007186858316221766,24.967145790554415
195,506.66,275.7,67.91,486.0,19.8,1,Apollo,1000,4.0,2500,507.03,294.9,1.0,0.3699999999999477,0.0013420384475877683,4.835096118969211
196,507.03,294.9,70.8,404.0,19.7,1,Apollo,1000,4.0,2500,508.39,289.7,1.0,1.3600000000000136,0.004611732790776581,16.969331976941504
197,508.39,289.7,68.1,392.0,28.9,1,Apollo,1000,4.0,2500,509.21,267.9,1.0,0.8199999999999932,0.0028305143251639393,10.356285812909821
198,509.21,267.9,67.3,480.0,23.1,1,Apollo,1000,4.0,2500,510.56,295.0,1.0,1.3500000000000227,0.005039193729003445,17.997984322508707
199,510.56,295.0,74.91,444.0,15.7,1,Apollo,1000,4.0,2500,511.14,304.7,1.0,0.5799999999999841,0.0019661016949152,7.235254237287936
200,511.14,304.7,63.9,456.0,21.4,1,Apollo,1000,4.0,2500,511.93,294.7,1.0,0.7900000000000205,0.0025927141450607827,9.641785362652039
201,511.93,294.7,74.8,493.0,16.3,1,Apollo,1000,4.0,2500,512.92,292.11,1.0,0.9899999999999523,0.003359348489989658,12.358371224973954
202,512.92,292.11,70.6,383.0,13.9,1,Apollo,1000,4.0,2500,513.87,303.11,1.0,0.9500000000000455,0.0032521995138819126,11.930498784704964
203,513.87,303.11,70.1,356.0,20.2,1,Apollo,1000,4.0,2500,514.88,322.4,1.0,1.009999999999991,0.0033321236514796304,12.37030912869904
204,514.88,322.4,64.8,534.0,25.7,1,Apollo,1000,4.0,2500,516.71,307.9,1.0,1.830000000000041,0.005676178660049755,21.51044665012455
205,516.71,307.9,67.41,558.0,23.1,1,Apollo,1000,4.0,2500,517.04,303.9,1.0,0.32999999999992724,0.0010717765508279548,3.999441377069596
206,517.04,303.9,63.9,458.0,26.0,1,Apollo,1000,4.0,2500,518.54,302.11,1.0,1.5,0.004935834155972359,18.339585389930896
207,518.54,302.11,66.2,550.0,24.2,1,Apollo,1000,4.0,2500,520.5,323.2,1.0,1.9600000000000364,0.006487703154480276,24.059257886200836
208,520.5,323.2,72.1,425.0,18.3,1,Apollo,1000,4.0,2500,522.56,327.8,1.0,2.0599999999999454,0.006373762376237455,24.17440594059342
209,522.56,327.8,72.6,328.0,17.3,1,Apollo,1000,4.0,2500,524.25,0.0,1.0,1.6900000000000546,0.0051555826723613625,19.648956680903623
210,524.25,0.0,87.2,41.0,3.3,1,Apollo,1000,4.0,2500,526.86,250.3,1.0,2.6100000000000136,0.0,10.440000000000055
211,526.86,250.3,92.3,159.0,2.21,1,Apollo,1000,4.0,2500,528.1,250.3,1.0,1.240000000000009,0.004954055133839429,17.34513783459861
212,528.1,250.3,78.1,344.0,16.3,1,Apollo,1000,4.0,2500,528.89,250.4,1.0,0.7899999999999636,0.003156212544945919,11.050531362364651
213,528.89,250.4,84.9,191.0,9.4,1,Apollo,1000,4.0,2500,530.4,243.5,1.0,1.509999999999991,0.0060303514376996445,21.115878594249075
214,530.4,243.5,83.3,254.0,11.1,1,Apollo,1000,4.0,2500,531.18,247.8,1.0,0.7799999999999727,0.0032032854209444466,11.128213552361007
215,531.18,247.8,78.0,217.0,16.11,1,Apollo,1000,4.0,2500,534.22,243.4,1.0,3.0400000000000773,0.012267958030670207,42.829895076675825
216,534.22,243.4,81.0,218.0,13.3,1,Apollo,1000,4.0,2500,535.0,250.4,1.0,0.7799999999999727,0.0032046014790467247,11.131503697616703
217,535.0,250.4,77.3,327.0,17.0,1,Apollo,1000,4.0,2500,536.5,248.9,1.0,1.5,0.0059904153354632585,20.976038338658146
218,536.5,248.9,83.9,136.0,10.6,1,Apollo,1000,4.0,2500,537.23,242.2,1.0,0.7300000000000182,0.002932904781036634,10.252261952591658
219,537.23,242.2,83.8,280.0,9.9,1,Apollo,1000,4.0,2500,538.66,234.4,1.0,1.42999999999995,0.005904211395540668,20.48052848885147
220,538.66,234.4,73.8,333.0,20.4,1,Apollo,1000,4.0,2500,540.09,235.4,1.0,1.4300000000000637,0.006100682593856927,20.971706484642574
221,540.09,235.4,75.6,352.0,18.61,1,Apollo,1000,4.0,2500,540.83,228.8,1.0,0.7400000000000091,0.0031435853865760793,10.818963466440234
222,540.83,228.8,75.1,357.0,19.11,1,Apollo,1000,4.0,2500,542.5,235.4,1.0,1.669999999999959,0.007298951048950869,24.92737762237701
223,542.5,235.4,82.6,294.0,11.8,1,Apollo,1000,4.0,2500,543.03,235.4,1.0,0.5299999999999727,0.0022514868309259674,7.74871707731481
224,543.03,235.4,82.4,414.0,11.9,1,Apollo,1000,4.0,2500,544.4,235.4,1.0,1.3700000000000045,0.005819881053525933,20.02970263381485
225,544.4,235.4,80.5,235.0,13.6,1,Apollo,1000,4.0,2500,545.09,241.7,1.0,0.6900000000000546,0.002931180968564378,10.087952421411163
226,545.09,241.7,84.3,168.0,10.0,1,Apollo,1000,4.0,2500,546.51,235.4,1.0,1.419999999999959,0.005875051717004382,20.36762929251079
227,546.51,235.4,86.5,127.0,5.7,1,Apollo,1000,4.0,2500,548.04,235.3,1.0,1.5299999999999727,0.00649957519116386,22.368937977909543
228,548.04,235.3,84.9,260.0,9.4,1,Apollo,1000,4.0,2500,550.21,235.6,1.0,2.1700000000000728,0.009222269443264227,31.73567360816086
229,550.21,235.6,84.0,181.0,9.9,1,Apollo,1000,4.0,2500,550.84,235.3,1.0,0.6299999999999955,0.0026740237691001505,9.205059422750358
230,550.84,235.3,87.8,175.0,6.5,1,Apollo,1000,4.0,2500,552.25,241.5,1.0,1.4099999999999682,0.005992350191245084,20.62087547811258
231,552.25,241.5,83.0,270.0,11.2,1,Apollo,1000,4.0,2500,553.1,235.2,1.0,0.8500000000000227,0.0035196687370601357,12.199171842650431
232,553.1,235.2,85.7,255.0,8.9,1,Apollo,1000,4.0,2500,554.41,235.3,1.0,1.3099999999999454,0.00556972789115623,19.16431972789036
233,554.41,235.3,81.6,247.0,10.6,1,Apollo,1000,4.0,2500,555.1,235.2,1.0,0.6900000000000546,0.0029324266893329984,10.091066723332714
234,555.1,235.2,84.3,290.0,10.2,1,Apollo,1000,4.0,2500,556.52,235.3,1.0,1.419999999999959,0.00603741496598622,20.77353741496539
235,556.52,235.3,79.41,188.0,14.9,1,Apollo,1000,4.0,2500,558.29,271.4,1.0,1.7699999999999818,0.0075223119422013675,25.885779855503348
236,558.29,271.4,79.8,345.0,15.1,1,Apollo,1000,4.0,2500,559.16,295.0,1.0,0.8700000000000045,0.0032056005895357573,11.494001473839411
237,559.16,295.0,81.5,180.0,12.7,1,Apollo,1000,4.0,2500,560.53,312.2,1.0,1.3700000000000045,0.004644067796610185,17.09016949152548
238,560.53,312.2,80.41,217.0,14.4,1,Apollo,1000,4.0,2500,561.12,317.7,1.0,0.5900000000000318,0.0018898142216528888,7.08453555413235
239,561.12,317.7,81.41,194.0,12.9,1,Apollo,1000,4.0,2500,562.5,325.3,1.0,1.3799999999999955,0.004343720491029259,16.37930122757313
240,562.5,325.3,80.41,192.0,13.9,1,Apollo,1000,4.0,2500,563.09,316.0,1.0,0.5900000000000318,0.0018137104211498056,6.894276052874641
241,563.09,316.0,78.2,260.0,16.0,1,Apollo,1000,4.0,2500,564.1,325.11,1.0,1.009999999999991,0.003196202531645541,12.030506329113816
242,564.1,325.11,82.0,200.0,12.4,1,Apollo,1000,4.0,2500,565.12,325.0,1.0,1.0199999999999818,0.003137399649349395,11.923499123373414
243,565.12,325.0,78.6,240.0,15.6,1,Apollo,1000,4.0,2500,566.52,335.8,1.0,1.3999999999999773,0.004307692307692237,16.3692307692305
244,566.52,335.8,76.2,385.0,18.11,1,Apollo,1000,4.0,2500,567.22,342.1,1.0,0.7000000000000455,0.0020845741512806595,8.011435378201831
245,567.22,342.1,76.2,287.0,18.0,1,Apollo,1000,4.0,2500,568.56,340.5,1.0,1.3399999999999181,0.003916983338204964,15.152458345512082
246,568.56,340.5,75.41,284.0,19.0,1,Apollo,1000,4.0,2500,570.45,350.4,1.0,1.8900000000001,0.005550660792951835,21.43665198237999
247,570.45,350.4,80.8,278.0,13.9,1,Apollo,1000,4.0,2500,572.48,339.8,1.0,2.0299999999999727,0.005793378995433712,22.603447488584173
248,572.48,339.8,78.6,334.0,15.9,1,Apollo,1000,4.0,2500,574.46,328.0,1.0,1.9800000000000182,0.0058269570335492,22.487392583873074
249,574.46,328.0,73.0,301.0,21.4,1,Apollo,1000,4.0,2500,576.81,327.8,1.0,2.349999999999909,0.007164634146341186,27.3115853658526
250,576.81,327.8,75.6,390.0,18.7,1,Apollo,1000,4.0,2500,578.5,327.9,1.0,1.6900000000000546,0.0051555826723613625,19.648956680903623
251,578.5,327.9,78.5,442.0,17.0,1,Apollo,1000,4.0,2500,580.48,328.0,1.0,1.9800000000000182,0.006038426349496855,23.016065873742207
252,580.48,328.0,82.3,383.0,12.3,1,Apollo,1000,4.0,2500,582.42,323.0,1.0,1.9399999999999409,0.005914634146341284,22.546585365852973
253,582.42,323.0,75.2,262.0,19.11,1,Apollo,1000,4.0,2500,584.37,342.7,1.0,1.9500000000000455,0.006037151702786519,22.89287925696648
254,584.37,342.7,72.8,379.0,25.5,1,Apollo,1000,4.0,2500,585.24,316.61,1.0,0.8700000000000045,0.0025386635541289893,9.826658885322491
255,585.24,316.61,80.7,64.0,18.61,1,Apollo,1000,4.0,2500,586.54,306.8,1.0,1.2999999999999545,0.004105997915416299,15.464994788540567
256,586.54,306.8,71.2,120.0,27.4,1,Apollo,1000,4.0,2500,587.21,305.9,1.0,0.6700000000000728,0.0021838331160367428,8.139582790092149
257,587.21,305.9,77.5,187.0,23.6,1,Apollo,1000,4.0,2500,588.53,339.7,1.0,1.3199999999999363,0.004315135665249874,16.06783916312443
258,588.53,339.7,81.6,37.0,19.11,1,Apollo,1000,4.0,2500,592.38,331.4,1.0,3.8500000000000227,0.011333529584927945,43.73382396231995
259,592.38,331.4,70.7,263.0,23.4,1,Apollo,1000,4.0,2500,594.35,332.9,1.0,1.9700000000000273,0.005944477972239069,22.741194930597782
260,594.35,332.9,74.41,71.0,24.6,1,Apollo,1000,4.0,2500,596.4,328.9,1.0,2.0499999999999545,0.006158005407029002,23.595013517572323
261,596.4,328.9,69.6,161.0,29.2,1,Apollo,1000,4.0,2500,598.34,325.7,1.0,1.9400000000000546,0.005898449376710413,22.50612344177625
262,598.34,325.7,68.41,346.0,30.7,1,Apollo,1000,4.0,2500,599.23,307.8,1.0,0.8899999999999864,0.002732575990174966,10.391439975437361
263,599.23,307.8,74.8,135.0,23.3,1,Apollo,1000,4.0,2500,600.53,306.61,1.0,1.2999999999999545,0.004223521767381268,15.758804418452987
264,600.53,306.61,72.41,162.0,26.7,1,Apollo,1000,4.0,2500,601.14,303.4,1.0,0.6100000000000136,0.0019894980594240682,7.413745148560225
265,601.14,303.4,72.41,129.0,26.7,1,Apollo,1000,4.0,2500,602.01,297.61,1.0,0.8700000000000045,0.002867501647989468,10.648754119973688
266,602.01,297.61,72.0,205.0,26.9,1,Apollo,1000,4.0,2500,602.92,296.11,1.0,0.9099999999999682,0.0030576929538656903,11.284232384664097
267,602.92,296.11,72.91,331.0,26.1,1,Apollo,1000,4.0,2500,603.93,307.11,1.0,1.009999999999991,0.003410894599979707,12.56723649994923
268,603.93,307.11,73.6,232.0,25.0,1,Apollo,1000,4.0,2500,604.76,297.8,1.0,0.8300000000000409,0.0027026146983166973,10.076536745791907
269,604.76,297.8,72.6,160.0,26.5,1,Apollo,1000,4.0,2500,606.78,306.4,1.0,2.019999999999982,0.006783075889858905,25.03768972464719
270,606.78,306.4,72.3,359.0,24.3,1,Apollo,1000,4.0,2500,607.01,318.2,1.0,0.2300000000000182,0.0007506527415144197,2.7966318537861223
271,607.01,318.2,73.6,182.0,25.5,1,Apollo,1000,4.0,2500,607.77,328.1,1.0,0.7599999999999909,0.002388434946574453,9.011087366436097
272,607.77,328.1,77.5,329.0,21.7,1,Apollo,1000,4.0,2500,608.88,345.5,1.0,1.1100000000000136,0.0033831149039927266,12.897787259981872
273,608.88,345.5,78.8,396.0,20.6,1,Apollo,1000,4.0,2500,609.9,349.7,1.0,1.0199999999999818,0.0029522431259044334,11.460607814761012
274,609.9,349.7,87.1,191.0,12.0,1,Apollo,1000,4.0,2500,611.01,353.0,1.0,1.1100000000000136,0.003174149270803585,12.375373177009017
275,611.01,353.0,80.0,182.0,19.11,1,Apollo,1000,4.0,2500,612.11,352.0,1.0,1.1000000000000227,0.003116147308781934,12.190368271954927
276,612.11,352.0,71.6,240.0,27.3,1,Apollo,1000,4.0,2500,613.11,338.2,1.0,1.0,0.002840909090909091,11.102272727272727
277,613.11,338.2,73.3,5.0,25.8,1,Apollo,1000,4.0,2500,614.25,352.1,1.0,1.1399999999999864,0.0033707865168538923,12.986966292134676
278,614.25,352.1,73.8,443.0,25.5,1,Apollo,1000,4.0,2500,616.49,370.5,1.0,2.240000000000009,0.006361829025844956,24.864572564612423
279,616.49,370.5,75.6,170.0,27.4,1,Apollo,1000,4.0,2500,618.09,373.1,1.0,1.6000000000000227,0.004318488529014906,17.196221322537355
280,618.09,373.1,81.8,358.0,18.4,1,Apollo,1000,4.0,2500,618.76,373.8,1.0,0.6699999999999591,0.001795765210399247,7.169413025997954
281,618.76,373.8,82.2,295.0,16.9,1,Apollo,1000,4.0,2500,619.96,372.8,1.0,1.2000000000000455,0.003210272873194343,12.82568218298604
282,619.96,372.8,78.5,436.0,20.5,1,Apollo,1000,4.0,2500,621.01,363.3,1.0,1.0499999999999545,0.0028165236051500924,11.24130901287505
283,621.01,363.3,79.41,418.0,14.4,1,Apollo,1000,4.0,2500,622.52,373.4,1.0,1.509999999999991,0.004156344618772339,16.430861546930814
284,622.52,373.4,79.3,471.0,19.5,1,Apollo,1000,4.0,2500,624.45,373.0,1.0,1.9300000000000637,0.005168719871451698,20.641799678629496
285,624.45,373.0,77.1,511.0,22.1,1,Apollo,1000,4.0,2500,626.71,374.2,1.0,2.259999999999991,0.006058981233243944,24.187453083109823
286,626.71,374.2,71.6,573.0,25.1,1,Apollo,1000,4.0,2500,627.02,372.5,1.0,0.30999999999994543,0.0008284339925172245,3.311084981292843
287,627.02,372.5,74.8,438.0,24.4,1,Apollo,1000,4.0,2500,627.86,372.6,1.0,0.8400000000000318,0.002255033557047065,8.99758389261779
288,627.86,372.6,74.7,531.0,24.4,1,Apollo,1000,4.0,2500,629.37,358.9,1.0,1.509999999999991,0.004052603327965622,16.171508319914018
289,629.37,358.9,81.7,340.0,20.11,1,Apollo,1000,4.0,2500,630.0,358.0,1.0,0.6299999999999955,0.0017553636110337017,6.908409027584236
290,630.0,358.0,75.5,410.0,23.7,1,Apollo,1000,4.0,2500,631.1,350.8,1.0,1.1000000000000227,0.003072625698324086,12.081564245810306
291,631.1,350.8,75.91,517.0,23.2,1,Apollo,1000,4.0,2500,632.51,350.8,1.0,1.4099999999999682,0.0040193842645381075,15.688460661345141
292,632.51,350.8,83.8,312.0,15.4,1,Apollo,1000,4.0,2500,633.22,350.9,1.0,0.7100000000000364,0.0020239452679590548,7.899863169897783
293,633.22,350.9,79.5,446.0,19.7,1,Apollo,1000,4.0,2500,634.33,350.9,1.0,1.1100000000000136,0.0031632943858649577,12.348235964662448
294,634.33,350.9,87.0,324.0,11.7,1,Apollo,1000,4.0,2500,636.45,350.8,1.0,2.1200000000000045,0.006041607295525804,23.58401823881453
295,636.45,350.8,81.5,396.0,14.9,1,Apollo,1000,4.0,2500,638.56,350.8,1.0,2.1099999999999,0.00601482326111716,23.4770581527925
296,638.56,350.8,82.7,416.0,16.4,1,Apollo,1000,4.0,2500,640.68,340.9,1.0,2.1200000000000045,0.006043329532497162,23.588323831242924
297,640.68,340.9,80.5,340.0,18.61,1,Apollo,1000,4.0,2500,641.08,350.5,1.0,0.40000000000009095,0.0011733646230568818,4.533411557642568
298,641.08,350.5,78.7,452.0,20.5,1,Apollo,1000,4.0,2500,641.78,350.5,1.0,0.6999999999999318,0.00199714693295273,7.792867332381552
299,641.78,350.5,79.6,497.0,19.61,1,Apollo,1000,4.0,2500,642.8,350.1,1.0,1.0199999999999818,0.0029101283880170665,11.355320970042595
300,642.8,350.1,78.7,451.0,16.4,1,Apollo,1000,4.0,2500,643.83,341.5,1.0,1.0300000000000864,0.002942016566695476,11.475041416739035
301,643.83,341.5,80.3,338.0,18.9,1,Apollo,1000,4.0,2500,644.87,371.6,1.0,1.0399999999999636,0.003045387994143378,11.7734699853583
302,644.87,371.6,80.7,226.0,20.9,1,Apollo,1000,4.0,2500,646.03,362.6,1.0,1.1599999999999682,0.0031216361679224113,12.444090419805901
303,646.03,362.6,79.7,258.0,22.9,1,Apollo,1000,4.0,2500,647.13,369.2,1.0,1.1000000000000227,0.00303364589078881,11.984114726972116
304,647.13,369.2,82.6,197.0,21.1,1,Apollo,1000,4.0,2500,648.3,374.5,1.0,1.169999999999959,0.0031690140845069318,12.602535211267167
305,648.3,374.5,80.6,328.0,21.1,1,Apollo,1000,4.0,2500,650.56,373.3,1.0,2.259999999999991,0.006034712950600776,24.126782376501904
306,650.56,373.3,76.5,246.0,25.4,1,Apollo,1000,4.0,2500,652.15,383.9,1.0,1.5900000000000318,0.004259308866863198,17.008272167158125
307,652.15,383.9,86.1,152.0,12.1,1,Apollo,1000,4.0,2500,652.83,373.4,1.0,0.6800000000000637,0.0017712946079709918,7.1482365199277345
308,652.83,373.4,86.9,152.0,14.9,1,Apollo,1000,4.0,2500,654.0,374.5,1.0,1.169999999999959,0.003133369041242526,12.51342260310615
309,654.0,374.5,88.4,199.0,13.3,1,Apollo,1000,4.0,2500,655.09,374.3,1.0,1.0900000000000318,0.00291054739652879,11.636368491322102
310,655.09,374.3,82.0,250.0,19.8,1,Apollo,1000,4.0,2500,656.26,374.8,1.0,1.169999999999959,0.003125834891797914,12.49458722949462
311,656.26,374.8,85.5,278.0,16.4,1,Apollo,1000,4.0,2500,658.53,374.7,1.0,2.269999999999982,0.0060565635005335695,24.22140875133385
312,658.53,374.7,81.91,338.0,19.8,1,Apollo,1000,4.0,2500,660.69,360.8,1.0,2.160000000000082,0.0057646116893517,23.05152922337958
313,660.69,360.8,79.2,251.0,22.6,1,Apollo,1000,4.0,2500,661.01,358.6,1.0,0.31999999999993634,0.0008869179600885153,3.4972949002210334
314,661.01,358.6,82.7,290.0,19.2,1,Apollo,1000,4.0,2500,661.79,352.6,1.0,0.7799999999999727,0.0021751254880088473,8.55781372002201
315,661.79,352.6,81.5,204.0,20.3,1,Apollo,1000,4.0,2500,662.89,350.8,1.0,1.1000000000000227,0.0031196823596143577,12.199205899035984
316,662.89,350.8,83.5,222.0,17.61,1,Apollo,1000,4.0,2500,663.91,350.5,1.0,1.0199999999999818,0.0029076396807297083,11.349099201824199
317,663.91,350.5,77.41,210.0,24.4,1,Apollo,1000,4.0,2500,665.01,350.3,1.0,1.1000000000000227,0.003138373751783232,12.24593437945817
318,665.01,350.3,87.5,179.0,14.4,1,Apollo,1000,4.0,2500,666.43,367.3,1.0,1.419999999999959,0.004053668284327602,15.814170710818841
319,666.43,367.3,81.7,221.0,13.8,1,Apollo,1000,4.0,2500,668.54,350.7,1.0,2.1100000000000136,0.005744622924040332,22.801557310100883
320,668.54,350.7,85.5,250.0,16.4,1,Apollo,1000,4.0,2500,670.66,350.6,1.0,2.1200000000000045,0.006045052751639591,23.592631879098995
321,670.66,350.6,80.91,248.0,19.4,1,Apollo,1000,4.0,2500,671.06,350.7,1.0,0.39999999999997726,0.001140901312036444,4.4522532800910195
322,671.06,350.7,86.3,377.0,15.5,1,Apollo,1000,4.0,2500,671.76,350.6,1.0,0.7000000000000455,0.001996007984032066,7.790019960080347
323,671.76,350.6,84.0,326.0,18.3,1,Apollo,1000,4.0,2500,672.78,350.6,1.0,1.0199999999999818,0.002909298345693045,11.353245864232541
324,672.78,350.6,82.0,253.0,15.2,1,Apollo,1000,4.0,2500,673.88,350.4,1.0,1.1000000000000227,0.003137478608100464,12.243696520251252
325,673.88,350.4,78.6,290.0,23.2,1,Apollo,1000,4.0,2500,674.88,337.9,1.0,1.0,0.002853881278538813,11.134703196347033
326,674.88,337.9,90.7,127.0,19.5,1,Apollo,1000,4.0,2500,676.08,334.9,1.0,1.2000000000000455,0.003551346552234524,13.678366380586493
327,676.08,334.9,83.0,395.0,21.9,1,Apollo,1000,4.0,2500,677.17,348.8,1.0,1.0899999999999181,0.003254702896386737,12.496757240966515
328,677.17,348.8,85.1,449.0,19.8,1,Apollo,1000,4.0,2500,678.52,351.2,1.0,1.3500000000000227,0.0038704128440367625,15.076032110091997
329,678.52,351.2,89.2,322.0,15.7,1,Apollo,1000,4.0,2500,680.34,343.5,1.0,1.82000000000005,0.005182232346241601,20.235580865604202
330,680.34,343.5,85.9,320.0,18.2,1,Apollo,1000,4.0,2500,682.56,353.7,1.0,2.2199999999999136,0.006462882096069617,25.037205240173698
331,682.56,353.7,86.2,472.0,19.0,1,Apollo,1000,4.0,2500,684.7,353.7,1.0,2.1400000000001,0.006050325134294883,23.685812835737607
332,684.7,353.7,89.5,389.0,15.4,1,Apollo,1000,4.0,2500,685.01,353.8,1.0,0.30999999999994543,0.0008764489680518672,3.4311224201294497
333,685.01,353.8,91.2,237.0,13.5,1,Apollo,1000,4.0,2500,686.04,353.5,1.0,1.0299999999999727,0.0029112492933860163,11.398123233464933
334,686.04,353.5,88.3,384.0,17.61,1,Apollo,1000,4.0,2500,686.83,353.6,1.0,0.7900000000000773,0.0022347949080624534,8.746987270156442
335,686.83,353.6,89.1,251.0,15.8,1,Apollo,1000,4.0,2500,690.08,353.8,1.0,3.25,0.009191176470588234,35.97794117647058
336,690.08,353.8,89.3,309.0,15.4,1,Apollo,1000,4.0,2500,691.19,353.7,1.0,1.1100000000000136,0.003137365743357868,12.283414358394724
337,691.19,353.7,88.0,338.0,16.3,1,Apollo,1000,4.0,2500,692.54,347.3,1.0,1.349999999999909,0.003816793893129514,14.941984732823421
338,692.54,347.3,79.1,408.0,25.5,1,Apollo,1000,4.0,2500,694.44,364.8,1.0,1.900000000000091,0.005470774546501845,21.276936366254976
339,694.44,364.8,81.8,473.0,22.1,1,Apollo,1000,4.0,2500,696.7,363.7,1.0,2.259999999999991,0.006195175438596465,24.527938596491126
340,696.7,363.7,78.8,406.0,28.5,1,Apollo,1000,4.0,2500,697.12,363.6,1.0,0.4199999999999591,0.0011547979103655734,4.56699477591377
341,697.12,363.6,81.6,460.0,22.9,1,Apollo,1000,4.0,2500,697.77,360.9,1.0,0.6499999999999773,0.0017876787678767249,7.069196919691722
342,697.77,360.9,78.2,460.0,26.7,1,Apollo,1000,4.0,2500,698.92,362.9,1.0,1.1499999999999773,0.0031864782488223256,12.566195622055723
343,698.92,362.9,82.8,343.0,22.1,1,Apollo,1000,4.0,2500,699.96,351.9,1.0,1.0400000000000773,0.0028658032515846716,11.324508128961988
344,699.96,351.9,76.0,455.0,28.6,1,Apollo,1000,4.0,2500,701.07,358.5,1.0,1.1100000000000136,0.003154305200341045,12.325763000852668
345,701.07,358.5,82.5,478.0,22.4,1,Apollo,1000,4.0,2500,702.64,363.3,1.0,1.5699999999999363,0.004379358437935667,17.228396094838914
346,702.64,363.3,80.8,491.0,23.9,1,Apollo,1000,4.0,2500,704.49,372.5,1.0,1.8500000000000227,0.005092210294522496,20.130525736306332
347,704.49,372.5,80.0,455.0,24.9,1,Apollo,1000,4.0,2500,706.74,373.2,1.0,2.25,0.00604026845637584,24.1006711409396
348,706.74,373.2,82.5,354.0,22.4,1,Apollo,1000,4.0,2500,707.08,373.2,1.0,0.34000000000003183,0.0009110396570204499,3.637599142551252
349,707.08,373.2,81.91,434.0,22.9,1,Apollo,1000,4.0,2500,707.92,372.9,1.0,0.8399999999999181,0.0022508038585206808,8.987009646301374
350,707.92,372.9,82.2,455.0,22.1,1,Apollo,1000,4.0,2500,708.95,367.6,1.0,1.0300000000000864,0.002762134620541932,11.025336551355174
351,708.95,367.6,79.3,408.0,24.9,1,Apollo,1000,4.0,2500,710.04,356.2,1.0,1.0899999999999181,0.002965179542981279,11.772948857452871
352,710.04,356.2,82.1,451.0,22.7,1,Apollo,1000,4.0,2500,712.55,350.2,1.0,2.509999999999991,0.007046603032004466,27.65650758001113
353,712.55,350.2,80.6,471.0,24.3,1,Apollo,1000,4.0,2500,713.24,348.5,1.0,0.6900000000000546,0.001970302684180624,7.685756710451779
354,713.24,348.5,77.1,429.0,27.5,1,Apollo,1000,4.0,2500,714.56,337.9,1.0,1.3199999999999363,0.0037876614060256427,14.749153515063853
355,714.56,337.9,79.3,419.0,25.6,1,Apollo,1000,4.0,2500,715.12,319.11,1.0,0.5600000000000591,0.0016572950577095564,6.383237644274128
356,715.12,319.11,80.91,419.0,25.6,1,Apollo,1000,4.0,2500,716.09,307.8,1.0,0.9700000000000273,0.003039704177243042,11.479260443107714
357,716.09,307.8,79.41,470.0,26.7,1,Apollo,1000,4.0,2500,717.02,304.61,1.0,0.92999999999995,0.003021442495126543,11.273606237816157
358,717.02,304.61,77.5,477.0,27.4,1,Apollo,1000,4.0,2500,717.92,304.9,1.0,0.8999999999999773,0.002954597682282188,10.98649420570538
359,717.92,304.9,83.1,404.0,22.2,1,Apollo,1000,4.0,2500,718.78,296.9,1.0,0.8600000000000136,0.0028205969170220194,10.491492292555103
360,718.78,296.9,77.6,528.0,27.3,1,Apollo,1000,4.0,2500,719.67,282.11,1.0,0.8899999999999864,0.0029976423038059496,11.054105759514819
361,719.67,282.11,83.0,407.0,21.9,1,Apollo,1000,4.0,2500,722.66,330.6,1.0,2.990000000000009,0.010598702633724467,38.45675658431121
362,722.66,330.6,78.1,390.0,26.6,1,Apollo,1000,4.0,2500,723.06,337.4,1.0,0.39999999999997726,0.0012099213551118489,4.624803387779531
363,723.06,337.4,83.7,421.0,21.3,1,Apollo,1000,4.0,2500,724.66,330.4,1.0,1.6000000000000227,0.004742145820984063,18.25536455246025
364,724.66,330.4,86.8,364.0,18.2,1,Apollo,1000,4.0,2500,725.03,331.3,1.0,0.37000000000000455,0.0011198547215496507,4.279636803874145
365,725.03,331.3,79.5,326.0,25.3,1,Apollo,1000,4.0,2500,726.46,296.11,1.0,1.4300000000000637,0.0043163296106250035,16.510824026562766
366,726.46,296.11,75.91,394.0,28.9,1,Apollo,1000,4.0,2500,728.11,265.0,1.0,1.6499999999999773,0.005572253554422266,20.530633886055575
367,728.11,265.0,80.8,405.0,21.6,1,Apollo,1000,4.0,2500,728.92,265.4,1.0,0.8099999999999454,0.0030566037735847,10.881509433961533
368,728.92,265.4,77.1,431.0,27.7,1,Apollo,1000,4.0,2500,729.79,272.11,1.0,0.8700000000000045,0.0032780708364732653,11.675177091183182
369,729.79,272.11,81.6,506.0,23.9,1,Apollo,1000,4.0,2500,730.75,293.11,1.0,0.9600000000000364,0.0035279850060638577,12.65996251515979
370,730.75,293.11,76.2,347.0,28.7,1,Apollo,1000,4.0,2500,731.8,319.2,1.0,1.0499999999999545,0.0035822728668416445,13.15568216710393
371,731.8,319.2,80.5,380.0,24.7,1,Apollo,1000,4.0,2500,732.87,335.5,1.0,1.07000000000005,0.003352130325814693,12.660325814536932
372,732.87,335.5,75.8,439.0,28.1,1,Apollo,1000,4.0,2500,733.85,337.6,1.0,0.9800000000000182,0.0029210134128167457,11.222533532041936
373,733.85,337.6,75.5,430.0,29.3,1,Apollo,1000,4.0,2500,734.87,333.2,1.0,1.0199999999999818,0.0030213270142179552,11.633317535544816
374,734.87,333.2,75.8,400.0,28.5,1,Apollo,1000,4.0,2500,736.73,310.7,1.0,1.8600000000000136,0.005582232893157304,21.395582232893315
375,736.73,310.7,80.91,349.0,24.0,1,Apollo,1000,4.0,2500,737.04,304.2,1.0,0.30999999999994543,0.0009977470228514497,3.734367557128406
376,737.04,304.2,76.8,361.0,28.0,1,Apollo,1000,4.0,2500,738.57,291.4,1.0,1.5300000000000864,0.0050295857988168526,18.69396449704248
377,738.57,291.4,80.41,434.0,24.4,1,Apollo,1000,4.0,2500,740.33,288.4,1.0,1.759999999999991,0.006039807824296469,22.139519560741135
378,740.33,288.4,78.2,328.0,26.7,1,Apollo,1000,4.0,2500,741.2,278.7,1.0,0.8700000000000045,0.0030166435506241494,11.021608876560393
379,741.2,278.7,78.3,472.0,26.5,1,Apollo,1000,4.0,2500,742.07,276.8,1.0,0.8700000000000045,0.0031216361679225137,11.284090419806303
380,742.07,276.8,81.3,469.0,23.9,1,Apollo,1000,4.0,2500,742.95,284.61,1.0,0.8799999999999955,0.00317919075144507,11.467976878612657
381,742.95,284.61,77.2,495.0,27.7,1,Apollo,1000,4.0,2500,743.95,301.0,1.0,1.0,0.003513579986648396,12.78394996662099
382,743.95,301.0,78.0,545.0,26.9,1,Apollo,1000,4.0,2500,744.94,323.8,1.0,0.9900000000000091,0.0032890365448505284,12.182591362126358
383,744.94,323.8,76.7,389.0,28.2,1,Apollo,1000,4.0,2500,745.99,333.1,1.0,1.0499999999999545,0.0032427424336008473,12.306856084001936
384,745.99,333.1,79.91,516.0,25.0,1,Apollo,1000,4.0,2500,747.08,340.7,1.0,1.0900000000000318,0.003272290603422491,12.540726508556356
385,747.08,340.7,76.5,445.0,28.0,1,Apollo,1000,4.0,2500,748.09,344.6,1.0,1.009999999999991,0.0029644848840621983,11.45121221015546
386,748.09,344.6,76.5,471.0,28.3,1,Apollo,1000,4.0,2500,750.28,323.7,1.0,2.189999999999941,0.0063551944283225205,24.647986070806063
387,750.28,323.7,76.2,317.0,28.6,1,Apollo,1000,4.0,2500,750.9,291.2,1.0,0.6200000000000045,0.0019153537225826524,7.26838430645665
388,750.9,291.2,79.91,410.0,25.0,1,Apollo,1000,4.0,2500,752.5,232.5,1.0,1.6000000000000227,0.005494505494505573,20.136263736264024
389,752.5,232.5,76.41,319.0,28.4,1,Apollo,1000,4.0,2500,753.02,224.6,1.0,0.5199999999999818,0.002236559139784868,7.671397849462098
390,753.02,224.6,79.1,420.0,25.8,1,Apollo,1000,4.0,2500,754.36,232.1,1.0,1.3400000000000318,0.005966162065895067,20.275405164737794
391,754.36,232.1,74.6,320.0,28.9,1,Apollo,1000,4.0,2500,755.14,237.7,1.0,0.7799999999999727,0.0033606204222316792,11.521551055579089
392,755.14,237.7,82.4,416.0,22.6,1,Apollo,1000,4.0,2500,756.62,249.7,1.0,1.4800000000000182,0.006226335717290779,21.485839293227023
393,756.62,249.7,75.3,316.0,29.4,1,Apollo,1000,4.0,2500,758.09,248.3,1.0,1.4700000000000273,0.005887064477372956,20.5976611934325
394,758.09,248.3,76.0,405.0,28.3,1,Apollo,1000,4.0,2500,758.87,243.9,1.0,0.7799999999999727,0.003141361256544393,10.973403141360873
395,758.87,243.9,81.0,447.0,23.2,1,Apollo,1000,4.0,2500,759.93,350.9,1.0,1.0599999999999454,0.004346043460434381,15.105108651085734
396,759.93,350.9,80.5,739.0,24.3,1,Apollo,1000,4.0,2500,760.88,329.3,1.0,0.9500000000000455,0.002707324023938574,10.568310059846617
397,760.88,329.3,76.7,837.0,28.2,1,Apollo,1000,4.0,2500,762.59,286.5,1.0,1.7100000000000364,0.005192833282721033,19.82208320680273
398,762.59,286.5,81.0,829.0,23.7,1,Apollo,1000,4.0,2500,764.2,262.5,1.0,1.6100000000000136,0.005619546247818547,20.488865619546424
399,764.2,262.5,77.3,936.0,24.3,1,Apollo,1000,4.0,2500,765.01,263.3,1.0,0.8099999999999454,0.0030857142857140776,10.954285714284975
400,765.01,263.3,78.6,869.0,26.5,1,Apollo,1000,4.0,2500,765.86,275.0,1.0,0.8500000000000227,0.003228256741359752,11.47064185339947
401,765.86,275.0,78.7,901.0,26.2,1,Apollo,1000,4.0,2500,766.83,299.3,1.0,0.9700000000000273,0.0035272727272728263,12.698181818182174
402,766.83,299.3,75.6,873.0,29.0,1,Apollo,1000,4.0,2500,768.64,295.4,1.0,1.8099999999999454,0.006047444036084013,22.358610090209815
403,768.64,295.4,76.2,845.0,28.6,1,Apollo,1000,4.0,2500,770.47,295.8,1.0,1.830000000000041,0.006194989844279082,22.807474610697867
404,770.47,295.8,79.41,883.0,25.6,1,Apollo,1000,4.0,2500,772.38,297.0,1.0,1.9099999999999682,0.006457065584854524,23.782663962136183
405,772.38,297.0,77.7,806.0,31.0,1,Apollo,1000,4.0,2500,774.5,298.4,1.0,2.1200000000000045,0.007138047138047153,26.3251178451179
406,774.5,298.4,74.0,829.0,30.8,1,Apollo,1000,4.0,2500,775.04,292.3,1.0,0.5399999999999636,0.0018096514745307092,6.684128686326628
407,775.04,292.3,73.8,718.0,31.0,1,Apollo,1000,4.0,2500,777.11,300.11,1.0,2.07000000000005,0.007081765309613582,25.984413274034154
408,777.11,300.11,76.41,729.0,28.4,1,Apollo,1000,4.0,2500,777.79,302.61,1.0,0.67999999999995,0.0022658358601844323,8.384589650460882
409,777.79,302.61,73.8,816.0,31.0,1,Apollo,1000,4.0,2500,778.76,303.9,1.0,0.9700000000000273,0.0032054459535376468,11.893614883844226
410,778.76,303.9,72.3,887.0,32.5,1,Apollo,1000,4.0,2500,780.66,314.11,1.0,1.8999999999999773,0.006252056597564914,23.230141493912193
411,780.66,314.11,74.41,818.0,30.4,1,Apollo,1000,4.0,2500,781.03,317.5,1.0,0.37000000000000455,0.0011779312979529608,4.42482824488242
412,781.03,317.5,76.2,829.0,28.6,1,Apollo,1000,4.0,2500,782.64,325.3,1.0,1.6100000000000136,0.005070866141732327,19.117165354330872
413,782.64,325.3,76.5,926.0,28.5,1,Apollo,1000,4.0,2500,783.02,327.8,1.0,0.37999999999999545,0.001168152474638781,4.440381186596934
414,783.02,327.8,71.8,792.0,33.1,1,Apollo,1000,4.0,2500,784.68,343.9,1.0,1.6599999999999682,0.005064063453325101,19.300158633312627
415,784.68,343.9,75.6,942.0,29.3,1,Apollo,1000,4.0,2500,785.0,350.4,1.0,0.32000000000005,0.0009305030532132889,3.6062576330334224
416,785.0,350.4,77.7,792.0,27.4,1,Apollo,1000,4.0,2500,785.82,357.1,1.0,0.82000000000005,0.0023401826484019694,9.130456621005123
417,785.82,357.1,76.7,829.0,28.6,1,Apollo,1000,4.0,2500,786.98,366.6,1.0,1.1599999999999682,0.0032483898067767235,12.760974516941682
418,786.98,366.6,79.3,868.0,27.0,1,Apollo,1000,4.0,2500,788.07,370.0,1.0,1.0900000000000318,0.0029732678668849748,11.793169667212563
419,788.07,370.0,78.1,794.0,26.8,1,Apollo,1000,4.0,2500,789.25,363.8,1.0,1.17999999999995,0.003189189189189054,12.692972972972434
420,789.25,363.8,79.91,781.0,25.2,1,Apollo,1000,4.0,2500,790.34,375.6,1.0,1.0900000000000318,0.0029961517317208127,11.850379329302159
421,790.34,375.6,80.2,734.0,24.7,1,Apollo,1000,4.0,2500,792.61,375.6,1.0,2.269999999999982,0.0060436634717784396,24.189158679446024
422,792.61,375.6,72.6,848.0,29.1,1,Apollo,1000,4.0,2500,793.02,374.3,1.0,0.40999999999996817,0.001091586794462109,4.3689669861551454
423,793.02,374.3,78.2,808.0,26.7,1,Apollo,1000,4.0,2500,793.78,373.8,1.0,0.7599999999999909,0.002030456852791854,8.116142131979599
424,793.78,373.8,77.3,925.0,27.6,1,Apollo,1000,4.0,2500,794.92,370.0,1.0,1.1399999999999864,0.003049759229534474,12.18439807383613
425,794.92,370.0,74.91,818.0,31.9,1,Apollo,1000,4.0,2500,795.96,364.5,1.0,1.0400000000000773,0.0028108108108110194,11.187027027027858
426,795.96,364.5,75.7,798.0,29.2,1,Apollo,1000,4.0,2500,797.03,349.1,1.0,1.0699999999999363,0.002935528120713131,11.618820301782574
427,797.03,349.1,83.9,772.0,23.2,1,Apollo,1000,4.0,2500,798.02,335.2,1.0,0.9900000000000091,0.0028358636493841564,11.049659123460426
428,798.02,335.2,78.1,754.0,26.8,1,Apollo,1000,4.0,2500,799.12,342.2,1.0,1.1000000000000227,0.0032816229116945784,12.604057279236537
429,799.12,342.2,80.0,772.0,24.7,1,Apollo,1000,4.0,2500,800.63,352.2,1.0,1.509999999999991,0.004412624196376362,17.07156049094087
430,800.63,352.2,85.7,692.0,19.61,1,Apollo,1000,4.0,2500,802.37,353.1,1.0,1.740000000000009,0.004940374787052837,19.31093696763213
431,802.37,353.1,79.6,757.0,25.2,1,Apollo,1000,4.0,2500,804.56,359.9,1.0,2.189999999999941,0.006202209005947155,24.26552251486765
432,804.56,359.9,82.0,859.0,22.9,1,Apollo,1000,4.0,2500,806.07,374.3,1.0,1.5100000000001046,0.004195609891636857,16.529024729092562
433,806.07,374.3,84.2,821.0,20.11,1,Apollo,1000,4.0,2500,806.88,372.7,1.0,0.8099999999999454,0.0021640395404754083,8.650098851188304
434,806.88,372.7,80.5,721.0,24.4,1,Apollo,1000,4.0,2500,810.8,420.0,1.0,3.919999999999959,0.010517842768982986,41.9746069224573
435,810.8,420.0,81.1,845.0,23.7,1,Apollo,1000,4.0,2500,811.09,422.5,1.0,0.2900000000000773,0.0006904761904763746,2.8861904761912456
436,811.09,422.5,79.2,832.0,25.6,1,Apollo,1000,4.0,2500,812.04,422.7,1.0,0.9499999999999318,0.0022485207100590102,9.421301775147253
437,812.04,422.7,79.3,751.0,25.6,1,Apollo,1000,4.0,2500,814.57,420.2,1.0,2.5300000000000864,0.005985332387035927,25.083330967590165
438,814.57,420.2,81.6,726.0,22.7,1,Apollo,1000,4.0,2500,815.18,437.2,1.0,0.6099999999999,0.0014516896715847216,6.069224178961404
439,815.18,437.2,82.3,821.0,22.9,1,Apollo,1000,4.0,2500,815.97,442.9,1.0,0.7900000000000773,0.0018069533394329308,7.677383348582636
440,815.97,442.9,82.5,852.0,21.4,1,Apollo,1000,4.0,2500,817.37,447.2,1.0,1.3999999999999773,0.003160984420862446,13.502461052156024
441,817.37,447.2,82.4,769.0,22.5,1,Apollo,1000,4.0,2500,818.86,456.7,1.0,1.490000000000009,0.0033318425760286425,14.289606440071642
442,818.86,456.7,84.8,702.0,19.9,1,Apollo,1000,4.0,2500,820.33,477.7,1.0,1.4700000000000273,0.003218743157433824,13.92685789358467
443,820.33,477.7,81.41,889.0,23.4,1,Apollo,1000,4.0,2500,821.9,499.0,1.0,1.5699999999999363,0.0032865815365290692,14.496453841322419
444,821.9,499.0,83.3,818.0,21.6,1,Apollo,1000,4.0,2500,823.36,502.3,1.0,1.4600000000000364,0.0029258517034068867,13.154629258517362
445,823.36,502.3,84.5,698.0,19.2,1,Apollo,1000,4.0,2500,824.94,502.3,1.0,1.580000000000041,0.003145530559426719,14.18382639856696
446,824.94,502.3,80.41,808.0,24.6,1,Apollo,1000,4.0,2500,826.51,501.5,1.0,1.5699999999999363,0.003125622138164317,14.094055345410538
447,826.51,501.5,76.5,902.0,27.9,1,Apollo,1000,4.0,2500,828.5,497.9,1.0,1.990000000000009,0.0039680957128614336,17.88023928215362
448,828.5,497.9,76.91,906.0,28.0,1,Apollo,1000,4.0,2500,830.07,497.0,1.0,1.57000000000005,0.0031532436232176143,14.163109058044235
449,830.07,497.0,78.1,906.0,27.0,1,Apollo,1000,4.0,2500,831.11,515.3,1.0,1.0399999999999636,0.0020925553319918783,9.39138832997955
450,831.11,515.3,76.7,826.0,29.4,1,Apollo,1000,4.0,2500,832.36,476.8,1.0,1.25,0.002425771395303707,11.064428488259267
451,832.36,476.8,77.0,840.0,27.8,1,Apollo,1000,4.0,2500,834.1,455.1,1.0,1.740000000000009,0.003649328859060422,16.083322147651092
452,834.1,455.1,76.2,900.0,28.8,1,Apollo,1000,4.0,2500,835.08,434.8,1.0,0.9800000000000182,0.002153372885080242,9.303432212700677
453,835.08,434.8,75.0,838.0,29.9,1,Apollo,1000,4.0,2500,836.34,429.4,1.0,1.259999999999991,0.0028978840846365936,12.284710211591449
454,836.34,429.4,74.7,907.0,29.9,1,Apollo,1000,4.0,2500,838.01,435.3,1.0,1.669999999999959,0.0038891476478806687,16.402869119701506
455,838.01,435.3,76.3,661.0,28.7,1,Apollo,1000,4.0,2500,839.18,461.5,1.0,1.169999999999959,0.002687801516195633,11.399503790488918
456,839.18,461.5,78.8,817.0,25.9,1,Apollo,1000,4.0,2500,840.64,470.3,1.0,1.4600000000000364,0.0031635969664139466,13.748992416035012
457,840.64,470.3,75.7,723.0,32.71,1,Apollo,1000,4.0,2500,841.14,465.3,1.0,0.5,0.00106315118009781,4.657877950244525
458,841.14,465.3,74.1,852.0,28.2,1,Apollo,1000,4.0,2500,841.93,459.3,1.0,0.7899999999999636,0.001697829357403747,7.404573393509223
459,841.93,459.3,74.5,831.0,30.4,1,Apollo,1000,4.0,2500,843.18,428.6,1.0,1.25,0.0027215327672545178,11.803831918136295
460,843.18,428.6,79.41,866.0,27.4,1,Apollo,1000,4.0,2500,844.46,425.9,1.0,1.2800000000000864,0.002986467568828946,12.586168922072712
461,844.46,425.9,76.91,794.0,29.4,1,Apollo,1000,4.0,2500,846.7,375.3,1.0,2.240000000000009,0.005259450575252429,22.108626438131108
462,846.7,375.3,71.6,1006.0,32.21,1,Apollo,1000,4.0,2500,847.0,355.0,1.0,0.2999999999999545,0.0007993605115906063,3.198401278976334
463,847.0,355.0,75.0,570.0,29.0,1,Apollo,1000,4.0,2500,848.61,194.1,1.0,1.6100000000000136,0.004535211267605672,17.778028169014235
464,848.61,194.1,103.2,28.0,2.6,1,Apollo,1000,4.0,2500,850.48,396.0,1.0,1.8700000000000045,0.009634209170530678,31.56552292632671
465,850.48,396.0,77.41,553.0,28.6,1,Apollo,1000,4.0,2500,852.49,339.9,1.0,2.009999999999991,0.005075757575757553,20.729393939393844
466,852.49,339.9,75.2,369.0,30.8,1,Apollo,1000,4.0,2500,856.64,348.6,1.0,4.149999999999977,0.012209473374521853,47.123683436304546
467,856.64,348.6,75.5,593.0,29.9,1,Apollo,1000,4.0,2500,858.02,362.8,1.0,1.3799999999999955,0.003958691910499126,15.416729776247797
468,858.02,362.8,74.8,596.0,31.2,1,Apollo,1000,4.0,2500,858.98,377.5,1.0,0.9600000000000364,0.0026460859977950283,10.455214994487715
469,858.98,377.5,76.0,605.0,30.0,1,Apollo,1000,4.0,2500,860.51,388.0,1.0,1.5299999999999727,0.0040529801324502585,16.252450331125537
470,860.51,388.0,75.3,578.0,31.0,1,Apollo,1000,4.0,2500,862.38,379.5,1.0,1.8700000000000045,0.004819587628865991,19.528969072164998
471,862.38,379.5,76.8,542.0,29.1,1,Apollo,1000,4.0,2500,864.39,337.7,1.0,2.009999999999991,0.005296442687747011,21.281106719367493
472,864.39,337.7,78.8,545.0,27.3,1,Apollo,1000,4.0,2500,866.35,308.8,1.0,1.9600000000000364,0.00580396801895184,22.349920047379747
473,866.35,308.8,76.2,660.0,29.8,1,Apollo,1000,4.0,2500,868.27,319.3,1.0,1.919999999999959,0.006217616580310748,23.224041450776706
474,868.27,319.3,75.8,630.0,30.2,1,Apollo,1000,4.0,2500,869.18,307.0,1.0,0.9099999999999682,0.002849984340745281,10.764960851863075
475,869.18,307.0,76.41,539.0,29.6,1,Apollo,1000,4.0,2500,870.05,293.8,1.0,0.8700000000000045,0.0028338762214983864,10.564690553745983
476,870.05,293.8,75.5,621.0,30.8,1,Apollo,1000,4.0,2500,870.9,277.9,1.0,0.8500000000000227,0.002893124574540581,10.632811436351542
477,870.9,277.9,73.0,486.0,32.9,1,Apollo,1000,4.0,2500,872.65,277.0,1.0,1.75,0.006297229219143577,22.743073047858942
478,872.65,277.0,74.3,545.0,28.9,1,Apollo,1000,4.0,2500,874.52,293.4,1.0,1.8700000000000045,0.00675090252707583,24.357256317689593
479,874.52,293.4,76.7,611.0,28.6,1,Apollo,1000,4.0,2500,876.59,335.3,1.0,2.07000000000005,0.00705521472392655,25.918036809816577
480,876.59,335.3,77.8,484.0,27.9,1,Apollo,1000,4.0,2500,878.16,268.8,1.0,1.5699999999999363,0.004682373993438522,17.98593498359605
481,878.16,268.8,74.8,469.0,30.9,1,Apollo,1000,4.0,2500,879.06,259.4,1.0,0.8999999999999773,0.003348214285714201,11.970535714285411
482,879.06,259.4,73.5,638.0,31.8,1,Apollo,1000,4.0,2500,880.64,266.5,1.0,1.580000000000041,0.006090979182729534,21.547447956823998
483,880.64,266.5,73.8,538.0,32.21,1,Apollo,1000,4.0,2500,882.23,263.8,1.0,1.5900000000000318,0.005966228893058281,21.27557223264583
484,882.23,263.8,80.8,487.0,25.3,1,Apollo,1000,4.0,2500,883.08,256.8,1.0,0.8500000000000227,0.0032221379833207837,11.45534495830205
485,883.08,256.8,76.1,604.0,29.9,1,Apollo,1000,4.0,2500,884.74,275.8,1.0,1.6599999999999682,0.006464174454828536,22.800436137071213
486,884.74,275.8,74.0,539.0,31.9,1,Apollo,1000,4.0,2500,885.06,281.9,1.0,0.31999999999993634,0.001160261058737985,4.180652646844708
487,885.06,281.9,77.2,707.0,28.9,1,Apollo,1000,4.0,2500,886.56,294.8,1.0,1.5,0.005321035828307911,19.302589570769776
488,886.56,294.8,73.1,576.0,32.8,1,Apollo,1000,4.0,2500,888.33,287.9,1.0,1.7700000000000955,0.006004070556309685,22.090176390774594
489,888.33,287.9,77.6,630.0,28.4,1,Apollo,1000,4.0,2500,889.22,284.9,1.0,0.8899999999999864,0.0030913511635984247,11.288377908996008
490,889.22,284.9,77.41,562.0,28.7,1,Apollo,1000,4.0,2500,890.02,270.4,1.0,0.7999999999999545,0.0028080028080026483,10.220007020006438
491,890.02,270.4,78.2,565.0,31.1,1,Apollo,1000,4.0,2500,890.87,278.2,1.0,0.8500000000000227,0.003143491124260439,11.25872781065119
492,890.87,278.2,78.0,712.0,28.0,1,Apollo,1000,4.0,2500,892.58,281.3,1.0,1.7100000000000364,0.006146657081236652,22.206642703091774
493,892.58,281.3,74.5,680.0,31.1,1,Apollo,1000,4.0,2500,894.56,277.5,1.0,1.9799999999999045,0.007038748666903322,25.516871667257924
494,894.56,277.5,75.2,561.0,29.9,1,Apollo,1000,4.0,2500,895.13,278.8,1.0,0.57000000000005,0.002054054054054234,7.4151351351357855
495,895.13,278.8,75.2,649.0,30.8,1,Apollo,1000,4.0,2500,896.04,271.2,1.0,0.9099999999999682,0.0032639885222380495,11.799971305594996
496,896.04,271.2,79.6,702.0,26.4,1,Apollo,1000,4.0,2500,897.05,309.4,1.0,1.009999999999991,0.0037241887905604385,13.35047197640106
497,897.05,309.4,78.8,678.0,27.3,1,Apollo,1000,4.0,2500,898.16,342.3,1.0,1.1100000000000136,0.0035875888817065733,13.408972204266489
498,898.16,342.3,75.8,581.0,30.3,1,Apollo,1000,4.0,2500,898.96,310.4,1.0,0.8000000000000682,0.002337131171487199,9.042827928718271
499,898.96,310.4,74.2,658.0,29.1,1,Apollo,1000,4.0,2500,900.74,287.61,1.0,1.7799999999999727,0.00573453608247414,21.45634020618524
500,900.74,287.61,74.5,620.0,30.8,1,Apollo,1000,4.0,2500,901.09,293.3,1.0,0.35000000000002274,0.0012169256979938901,4.442314244984816
501,901.09,293.3,72.91,665.0,31.9,1,Apollo,1000,4.0,2500,902.71,320.61,1.0,1.6200000000000045,0.0055233549266962305,20.288387316740597
502,902.71,320.61,75.7,611.0,30.3,1,Apollo,1000,4.0,2500,903.04,326.3,1.0,0.32999999999992724,0.0010292879199024585,3.893219799755855
503,903.04,326.3,77.3,554.0,28.7,1,Apollo,1000,4.0,2500,903.85,343.0,1.0,0.8100000000000591,0.0024823781795895164,9.445945448974028
504,903.85,343.0,77.2,642.0,29.4,1,Apollo,1000,4.0,2500,904.9,359.3,1.0,1.0499999999999545,0.0030612244897957855,11.85306122448928
505,904.9,359.3,74.1,654.0,31.9,1,Apollo,1000,4.0,2500,905.89,344.2,1.0,0.9900000000000091,0.0027553576398552993,10.848394099638284
506,905.89,344.2,77.8,557.0,28.9,1,Apollo,1000,4.0,2500,906.8,314.61,1.0,0.9099999999999682,0.0026438117373619066,10.249529343404639
507,906.8,314.61,74.6,717.0,31.4,1,Apollo,1000,4.0,2500,908.74,313.3,1.0,1.9400000000000546,0.00616636470550858,23.17591176377167
508,908.74,313.3,76.0,469.0,30.5,1,Apollo,1000,4.0,2500,909.08,310.0,1.0,0.34000000000003183,0.0010852218321099004,4.073054580274878
509,909.08,310.0,80.41,632.0,27.2,1,Apollo,1000,4.0,2500,909.79,335.3,1.0,0.7099999999999227,0.002290322580644912,8.56580645161197
510,909.79,335.3,72.5,649.0,33.4,1,Apollo,1000,4.0,2500,911.91,339.2,1.0,2.1200000000000045,0.006322696093051013,24.28674023262755
511,911.91,339.2,76.5,703.0,29.7,1,Apollo,1000,4.0,2500,912.75,317.5,1.0,0.8400000000000318,0.0024764150943397166,9.55103773584942
512,912.75,317.5,79.41,530.0,26.6,1,Apollo,1000,4.0,2500,914.6,306.5,1.0,1.8500000000000227,0.005826771653543379,21.96692913385854
513,914.6,306.5,75.7,707.0,30.4,1,Apollo,1000,4.0,2500,916.33,274.8,1.0,1.7300000000000182,0.00564437194127249,21.0309298531813
514,916.33,274.8,74.6,526.0,30.2,1,Apollo,1000,4.0,2500,917.09,264.4,1.0,0.7599999999999909,0.002765647743813649,9.954119359534086
515,917.09,264.4,77.7,728.0,28.3,1,Apollo,1000,4.0,2500,918.03,278.2,1.0,0.9399999999999409,0.003555219364598869,12.648048411496935
516,918.03,278.2,75.3,539.0,30.0,1,Apollo,1000,4.0,2500,918.84,269.0,1.0,0.8100000000000591,0.0029115744069017225,10.518936017254543
517,918.84,269.0,75.6,593.0,30.4,1,Apollo,1000,4.0,2500,920.55,236.4,1.0,1.7099999999999227,0.006356877323419787,22.732193308549157
518,920.55,236.4,75.91,716.0,31.5,1,Apollo,1000,4.0,2500,921.15,266.0,1.0,0.6000000000000227,0.002538071065989944,8.74517766497495
519,921.15,266.0,77.5,695.0,28.5,1,Apollo,1000,4.0,2500,922.35,319.9,1.0,1.2000000000000455,0.004511278195488893,16.078195488722415
520,922.35,319.9,73.5,673.0,31.8,1,Apollo,1000,4.0,2500,924.63,377.3,1.0,2.2799999999999727,0.007127227258518202,26.938068146295397
521,924.63,377.3,80.41,656.0,25.7,1,Apollo,1000,4.0,2500,925.07,379.7,1.0,0.44000000000005457,0.0011661807580176373,4.675451895044311
522,925.07,379.7,81.7,729.0,24.3,1,Apollo,1000,4.0,2500,925.86,384.1,1.0,0.7899999999999636,0.0020805899394257667,8.36147484856427
523,925.86,384.1,72.91,808.0,30.0,1,Apollo,1000,4.0,2500,926.86,375.3,1.0,1.0,0.0026034886748242643,10.50872168706066
524,926.86,375.3,78.5,822.0,27.5,1,Apollo,1000,4.0,2500,928.05,358.0,1.0,1.1899999999999409,0.0031707966959763946,12.686991739940751
525,928.05,358.0,76.5,661.0,29.8,1,Apollo,1000,4.0,2500,928.96,351.6,1.0,0.9100000000000819,0.0025418994413410104,9.994748603352853
526,928.96,351.6,78.3,813.0,27.7,1,Apollo,1000,4.0,2500,929.99,335.9,1.0,1.0299999999999727,0.0029294653014788757,11.44366325369708
527,929.99,335.9,74.2,721.0,31.7,1,Apollo,1000,4.0,2500,930.92,316.5,1.0,0.92999999999995,0.0027686811551055376,10.641702887763644
528,930.92,316.5,77.5,830.0,28.4,1,Apollo,1000,4.0,2500,932.56,271.11,1.0,1.6399999999999864,0.005181674565560779,19.514186413901893
529,932.56,271.11,78.6,708.0,27.2,1,Apollo,1000,4.0,2500,934.6,328.3,1.0,2.0400000000000773,0.007524621002545377,26.97155250636375
530,934.6,328.3,75.91,705.0,30.0,1,Apollo,1000,4.0,2500,936.32,257.0,1.0,1.7200000000000273,0.005239110569601057,19.97777642400275
531,936.32,257.0,88.5,493.0,17.61,1,Apollo,1000,4.0,2500,938.6,230.3,1.0,2.2799999999999727,0.008871595330739194,31.298988326847876
532,938.6,230.3,77.3,692.0,30.8,1,Apollo,1000,4.0,2500,940.48,280.4,1.0,1.8799999999999955,0.008163265306122429,27.928163265306054
533,940.48,280.4,76.8,806.0,28.8,1,Apollo,1000,4.0,2500,942.03,342.1,1.0,1.5499999999999545,0.005527817403708826,20.019543509271884
534,942.03,342.1,78.8,610.0,27.2,1,Apollo,1000,4.0,2500,942.83,377.4,1.0,0.8000000000000682,0.0023384975153465893,9.046243788366747
535,942.83,377.4,74.2,754.0,31.5,1,Apollo,1000,4.0,2500,943.74,355.3,1.0,0.9099999999999682,0.0024112347641758567,9.668086910439515
536,943.74,355.3,74.7,838.0,26.6,1,Apollo,1000,4.0,2500,944.99,330.7,1.0,1.25,0.0035181536729524347,13.795384182381087
537,944.99,330.7,79.1,741.0,26.2,1,Apollo,1000,4.0,2500,946.52,295.4,1.0,1.5299999999999727,0.004626549742969376,17.686374357423333
538,946.52,295.4,81.7,651.0,24.3,1,Apollo,1000,4.0,2500,948.11,249.3,1.0,1.5900000000000318,0.005382532159783453,19.816330399458757
539,948.11,249.3,76.8,745.0,29.8,1,Apollo,1000,4.0,2500,949.09,289.8,1.0,0.9800000000000182,0.003931006819093534,13.747517047733908
540,949.09,289.8,79.1,691.0,26.9,1,Apollo,1000,4.0,2500,950.34,341.1,1.0,1.25,0.004313319530710835,15.783298826777088
541,950.34,341.1,77.91,659.0,28.3,1,Apollo,1000,4.0,2500,952.15,324.2,1.0,1.8099999999999454,0.005306361770741557,20.505904426853675
542,952.15,324.2,72.3,682.0,33.4,1,Apollo,1000,4.0,2500,953.0,286.9,1.0,0.8500000000000227,0.0026218383713757644,9.954595928439502
543,953.0,286.9,79.7,719.0,26.3,1,Apollo,1000,4.0,2500,954.5,329.1,1.0,1.5,0.005228302544440572,19.07075636110143
544,954.5,329.1,76.7,677.0,29.0,1,Apollo,1000,4.0,2500,956.47,377.5,1.0,1.9700000000000273,0.005986022485566779,22.845056213917058
545,956.47,377.5,76.0,704.0,30.0,1,Apollo,1000,4.0,2500,958.44,331.1,1.0,1.9700000000000273,0.0052185430463576885,20.926357615894332
546,958.44,331.1,76.2,814.0,28.5,1,Apollo,1000,4.0,2500,960.03,347.7,1.0,1.5899999999999181,0.0048021745696161825,18.365436424040126
547,960.03,347.7,79.91,677.0,26.2,1,Apollo,1000,4.0,2500,961.01,387.4,1.0,0.9800000000000182,0.0028185217141214213,10.966304285303625
548,961.01,387.4,73.7,879.0,31.4,1,Apollo,1000,4.0,2500,962.0,397.7,1.0,0.9900000000000091,0.002555498193082109,10.34874548270531
549,962.0,397.7,77.8,741.0,28.2,1,Apollo,1000,4.0,2500,962.96,350.4,1.0,0.9600000000000364,0.0024138798089012735,9.87469952225333
550,962.96,350.4,81.41,706.0,25.0,1,Apollo,1000,4.0,2500,963.92,326.9,1.0,0.9599999999999227,0.0027397260273970396,10.68931506849229
551,963.92,326.9,75.1,817.0,27.9,1,Apollo,1000,4.0,2500,965.04,338.7,1.0,1.1200000000000045,0.0034261241970021555,13.045310492505408
552,965.04,338.7,74.5,812.0,31.3,1,Apollo,1000,4.0,2500,966.09,340.7,1.0,1.0500000000000682,0.0031000885739594576,11.950221434898918
553,966.09,340.7,72.7,664.0,32.71,1,Apollo,1000,4.0,2500,967.13,319.5,1.0,1.0399999999999636,0.003052538890519412,11.791347226298384
554,967.13,319.5,79.91,647.0,28.8,1,Apollo,1000,4.0,2500,968.06,326.2,1.0,0.92999999999995,0.0029107981220655712,10.996995305163729
555,968.06,326.2,76.0,889.0,30.0,1,Apollo,1000,4.0,2500,969.08,328.4,1.0,1.0200000000000955,0.003126916002452776,11.897290006132321
556,969.08,328.4,79.0,700.0,27.7,1,Apollo,1000,4.0,2500,970.55,352.3,1.0,1.4699999999999136,0.004476248477466241,17.070621193665257
557,970.55,352.3,81.41,593.0,23.1,1,Apollo,1000,4.0,2500,972.64,392.8,1.0,2.090000000000032,0.005932443939824104,23.191109849560387
558,972.64,392.8,76.91,864.0,29.1,1,Apollo,1000,4.0,2500,974.63,331.1,1.0,1.990000000000009,0.005066191446028536,20.62547861507138
559,974.63,331.1,80.0,723.0,30.6,1,Apollo,1000,4.0,2500,976.88,342.4,1.0,2.25,0.006795530051344005,25.988825128360013
560,976.88,342.4,78.6,804.0,27.4,1,Apollo,1000,4.0,2500,977.14,348.0,1.0,0.2599999999999909,0.0007593457943924969,2.938364485981206
561,977.14,348.0,78.41,698.0,27.8,1,Apollo,1000,4.0,2500,977.78,351.4,1.0,0.6399999999999864,0.0018390804597700756,7.157701149425135
562,977.78,351.4,75.8,748.0,30.2,1,Apollo,1000,4.0,2500,979.0,371.0,1.0,1.2200000000000273,0.0034718269778031513,13.559567444507987
563,979.0,371.0,76.41,795.0,29.2,1,Apollo,1000,4.0,2500,980.27,387.6,1.0,1.2699999999999818,0.003423180592991865,13.63795148247959
564,980.27,387.6,74.3,714.0,29.1,1,Apollo,1000,4.0,2500,982.55,0.0,1.0,2.2799999999999727,0.005882352941176399,23.825882352940887
565,982.55,0.0,84.8,684.0,23.6,1,Apollo,1000,4.0,2500,984.48,360.1,1.0,1.9300000000000637,0.0,7.720000000000255
566,984.48,360.1,77.1,699.0,28.9,1,Apollo,1000,4.0,2500,986.02,367.9,1.0,1.5399999999999636,0.0042765898361565215,16.851474590391156
567,986.02,367.9,74.0,746.0,31.8,1,Apollo,1000,4.0,2500,986.84,375.4,1.0,0.82000000000005,0.0022288665398207392,8.852166349552048
568,986.84,375.4,74.7,723.0,31.1,1,Apollo,1000,4.0,2500,987.86,367.5,1.0,1.0199999999999818,0.0027171017581246186,10.872754395311475
569,987.86,367.5,79.41,726.0,26.6,1,Apollo,1000,4.0,2500,988.92,348.5,1.0,1.0599999999999454,0.0028843537414964503,11.450884353740907
570,988.92,348.5,73.91,747.0,32.1,1,Apollo,1000,4.0,2500,989.84,320.61,1.0,0.9200000000000728,0.0026398852223818445,10.279713055954902
571,989.84,320.61,74.6,656.0,31.4,1,Apollo,1000,4.0,2500,990.86,325.11,1.0,1.0199999999999818,0.003181435388790062,12.033588471975083
572,990.86,325.11,75.1,786.0,30.8,1,Apollo,1000,4.0,2500,991.83,316.3,1.0,0.9700000000000273,0.0029836055488912283,11.339013872228179
573,991.83,316.3,76.0,776.0,29.0,1,Apollo,1000,4.0,2500,992.77,306.4,1.0,0.9399999999999409,0.002971862156180654,11.1896553904514
574,992.77,306.4,80.41,648.0,27.4,1,Apollo,1000,4.0,2500,993.86,329.0,1.0,1.0900000000000318,0.0035574412532638116,13.253603133159656
575,993.86,329.0,77.1,799.0,28.9,1,Apollo,1000,4.0,2500,994.9,336.7,1.0,1.0399999999999636,0.0031610942249239017,12.062735562309609
576,994.9,336.7,75.6,721.0,31.2,1,Apollo,1000,4.0,2500,995.94,348.0,1.0,1.0400000000000773,0.0030888030888033186,11.882007722008606
577,995.94,348.0,80.3,593.0,25.7,1,Apollo,1000,4.0,2500,997.03,340.9,1.0,1.0899999999999181,0.0031321839080457417,12.190459770114026
578,997.03,340.9,78.0,716.0,28.7,1,Apollo,1000,4.0,2500,998.68,288.3,1.0,1.6499999999999773,0.00484012907010847,18.70032267527108
579,998.68,288.3,77.8,812.0,28.4,1,Apollo,1000,4.0,2500,999.06,290.0,1.0,0.37999999999999545,0.001318071453347192,4.815178633367962
580,999.06,290.0,75.3,753.0,30.6,1,Apollo,1000,4.0,2500,1000.68,315.5,1.0,1.6200000000000045,0.00558620689655174,20.445517241379367
581,1000.68,315.5,78.8,757.0,27.2,1,Apollo,1000,4.0,2500,1001.04,329.9,1.0,0.36000000000001364,0.0011410459587956059,4.292614896989069
582,1001.04,329.9,77.1,867.0,29.5,1,Apollo,1000,4.0,2500,1001.88,349.2,1.0,0.8400000000000318,0.002546226129130136,9.725565322825467
583,1001.88,349.2,77.91,889.0,28.1,1,Apollo,1000,4.0,2500,1003.1,385.9,1.0,1.2200000000000273,0.003493699885452541,13.614249713631462
584,1003.1,385.9,77.7,701.0,28.2,1,Apollo,1000,4.0,2500,1004.67,390.9,1.0,1.5699999999999363,0.004068411505571227,16.451028763927816
585,1004.67,390.9,78.0,841.0,27.9,1,Apollo,1000,4.0,2500,1006.04,415.3,1.0,1.3700000000000045,0.0035047326682015978,14.241831670504013
586,1006.04,415.3,80.1,723.0,26.4,1,Apollo,1000,4.0,2500,1006.86,406.7,1.0,0.82000000000005,0.001974476282205755,8.216190705514588
587,1006.86,406.7,82.6,723.0,23.5,1,Apollo,1000,4.0,2500,1008.26,446.2,1.0,1.3999999999999773,0.0034423407917383263,14.205851979345725
588,1008.26,446.2,74.91,715.0,30.2,1,Apollo,1000,4.0,2500,1010.07,332.6,1.0,1.8100000000000591,0.0040564769161812175,17.381192290453278
589,1010.07,332.6,77.7,780.0,28.4,1,Apollo,1000,4.0,2500,1011.16,313.4,1.0,1.0899999999999181,0.003277209861695484,12.553024654238383
590,1011.16,313.4,76.5,803.0,29.0,1,Apollo,1000,4.0,2500,1012.25,343.4,1.0,1.0900000000000318,0.0034779834077856794,13.054958519464325
591,1012.25,343.4,75.41,779.0,30.5,1,Apollo,1000,4.0,2500,1014.41,352.0,1.0,2.159999999999968,0.006290040768782668,24.365101921956544
592,1014.41,352.0,76.91,696.0,28.9,1,Apollo,1000,4.0,2500,1015.53,350.3,1.0,1.1200000000000045,0.0031818181818181945,12.434545454545503
593,1015.53,350.3,79.7,696.0,26.3,1,Apollo,1000,4.0,2500,1016.82,376.0,1.0,1.2900000000000773,0.003682557807593712,14.366394518984588
594,1016.82,376.0,74.7,680.0,30.4,1,Apollo,1000,4.0,2500,1017.96,390.9,1.0,1.1399999999999864,0.003031914893616985,12.139787234042409
595,1017.96,390.9,75.2,715.0,30.8,1,Apollo,1000,4.0,2500,1019.04,376.4,1.0,1.0799999999999272,0.0027628549501149333,11.227137375287043
596,1019.04,376.4,82.3,786.0,23.7,1,Apollo,1000,4.0,2500,1020.54,364.3,1.0,1.5,0.003985122210414453,15.962805526036133
597,1020.54,364.3,78.7,723.0,27.3,1,Apollo,1000,4.0,2500,1022.34,356.4,1.0,1.8000000000000682,0.0049409827065607145,19.55245676640206
598,1022.34,356.4,83.5,732.0,22.6,1,Apollo,1000,4.0,2500,1024.3,322.9,1.0,1.9599999999999227,0.005499438832771949,21.588597081929564
599,1024.3,322.9,77.8,737.0,28.4,1,Apollo,1000,4.0,2500,1026.0,399.2,1.0,1.7000000000000455,0.005264787860018723,19.96196965004699
600,1026.0,399.2,74.7,683.0,31.0,1,Apollo,1000,4.0,2500,1026.78,388.7,1.0,0.7799999999999727,0.0019539078156311945,8.004769539077877
601,1026.78,388.7,72.6,760.0,29.5,1,Apollo,1000,4.0,2500,1027.98,384.2,1.0,1.2000000000000455,0.0030872137895550434,12.518034473887791
602,1027.98,384.2,75.0,707.0,24.1,1,Apollo,1000,4.0,2500,1030.54,408.5,1.0,2.5599999999999454,0.006663196251951967,26.8979906298797
603,1030.54,408.5,76.0,848.0,29.7,1,Apollo,1000,4.0,2500,1031.01,410.5,1.0,0.4700000000000273,0.001150550795593702,4.756376988984364
604,1031.01,410.5,80.7,669.0,27.6,1,Apollo,1000,4.0,2500,1031.85,418.8,1.0,0.8399999999999181,0.0020462850182702023,8.47571254567518
605,1031.85,418.8,75.6,750.0,30.3,1,Apollo,1000,4.0,2500,1033.06,405.7,1.0,1.2100000000000364,0.002889207258834853,12.063018147087277
606,1033.06,405.7,74.6,712.0,31.3,1,Apollo,1000,4.0,2500,1034.49,431.8,1.0,1.4300000000000637,0.0035247719990142068,14.531929997535771
607,1034.49,431.8,77.8,713.0,27.6,1,Apollo,1000,4.0,2500,1036.08,421.9,1.0,1.5899999999999181,0.0036822603056968924,15.565650764241903
608,1036.08,421.9,78.2,709.0,27.8,1,Apollo,1000,4.0,2500,1037.0,416.2,1.0,0.9200000000000728,0.0021806115193175463,9.131528798294156
609,1037.0,416.2,74.8,710.0,31.2,1,Apollo,1000,4.0,2500,1038.3,413.7,1.0,1.2999999999999545,0.003123498318116181,13.00874579529027
610,1038.3,413.7,77.91,676.0,27.9,1,Apollo,1000,4.0,2500,1040.71,402.9,1.0,2.410000000000082,0.005825477399081658,24.20369349770447
611,1040.71,402.9,76.41,768.0,29.6,1,Apollo,1000,4.0,2500,1041.0,392.9,1.0,0.2899999999999636,0.0007197815835193935,2.9594539587983384
612,1041.0,392.9,78.91,728.0,27.7,1,Apollo,1000,4.0,2500,1041.94,395.6,1.0,0.9400000000000546,0.0023924662764063494,9.741165691016093
613,1041.94,395.6,75.3,763.0,29.8,1,Apollo,1000,4.0,2500,1044.49,410.2,1.0,2.5499999999999545,0.006445904954499379,26.314762386248265
614,1044.49,410.2,75.8,792.0,30.5,1,Apollo,1000,4.0,2500,1045.52,386.4,1.0,1.0299999999999727,0.002510970258410465,10.397425646026054
615,1045.52,386.4,74.41,849.0,31.6,1,Apollo,1000,4.0,2500,1046.77,376.8,1.0,1.25,0.003234989648033126,13.087474120082815
616,1046.77,376.8,74.2,893.0,31.7,1,Apollo,1000,4.0,2500,1047.96,381.3,1.0,1.1900000000000546,0.003158174097664688,12.65543524416194
617,1047.96,381.3,81.1,695.0,30.3,1,Apollo,1000,4.0,2500,1049.37,427.7,1.0,1.4099999999998545,0.003697875688433922,14.884689221084223
618,1049.37,427.7,85.9,767.0,20.11,1,Apollo,1000,4.0,2500,1050.78,442.0,1.0,1.4100000000000819,0.0032967032967034884,13.881758241759048
619,1050.78,442.0,81.7,806.0,24.2,1,Apollo,1000,4.0,2500,1052.56,446.3,1.0,1.7799999999999727,0.004027149321266906,17.18787330316716
620,1052.56,446.3,80.3,812.0,25.8,1,Apollo,1000,4.0,2500,1053.47,445.9,1.0,0.9100000000000819,0.00203898722832194,8.737468070805177
621,1053.47,445.9,85.0,702.0,21.1,1,Apollo,1000,4.0,2500,1054.89,446.6,1.0,1.4200000000000728,0.0031845705315094704,13.641426328773967
622,1054.89,446.6,79.3,737.0,29.1,1,Apollo,1000,4.0,2500,1055.9,408.8,1.0,1.009999999999991,0.002261531571876379,9.69382892969091
623,1055.9,408.8,74.41,760.0,31.6,1,Apollo,1000,4.0,2500,1058.51,362.7,1.0,2.6099999999999,0.006384540117416585,26.401350293541064
624,1058.51,362.7,76.6,737.0,29.4,1,Apollo,1000,4.0,2500,1060.82,439.6,1.0,2.3099999999999454,0.006368899917286864,25.16224979321694
625,1060.82,439.6,77.7,815.0,25.9,1,Apollo,1000,4.0,2500,1061.01,440.9,1.0,0.19000000000005457,0.00043221110100103403,1.8405277525028034
626,1061.01,440.9,74.7,921.0,31.1,1,Apollo,1000,4.0,2500,1061.97,428.3,1.0,0.9600000000000364,0.002177364481741974,9.283411204355081
627,1061.97,428.3,81.2,853.0,24.9,1,Apollo,1000,4.0,2500,1064.36,392.8,1.0,2.3899999999998727,0.005580200793835799,23.510501984588988
628,1064.36,392.8,81.2,747.0,24.8,1,Apollo,1000,4.0,2500,1066.67,374.6,1.0,2.310000000000173,0.0058808553971491165,23.942138492873482
629,1066.67,374.6,77.7,859.0,27.1,1,Apollo,1000,4.0,2500,1067.0,358.5,1.0,0.32999999999992724,0.0008809396689800512,3.522349172449837
630,1067.0,358.5,74.41,901.0,30.2,1,Apollo,1000,4.0,2500,1067.82,370.2,1.0,0.8199999999999363,0.002287308228730645,8.998270571826358
631,1067.82,370.2,81.8,798.0,24.2,1,Apollo,1000,4.0,2500,1069.1,379.1,1.0,1.2799999999999727,0.0034575904916260745,13.763976229065078
632,1069.1,379.1,77.91,746.0,30.9,1,Apollo,1000,4.0,2500,1070.27,406.3,1.0,1.1700000000000728,0.0030862569242945735,12.395642310736726
633,1070.27,406.3,76.7,891.0,29.3,1,Apollo,1000,4.0,2500,1072.6,389.8,1.0,2.3299999999999272,0.005734678808761819,23.656697021904257
634,1072.6,389.8,80.41,664.0,25.2,1,Apollo,1000,4.0,2500,1073.04,377.0,1.0,0.44000000000005457,0.0011287839917908018,4.581959979477222
635,1073.04,377.0,75.3,808.0,30.7,1,Apollo,1000,4.0,2500,1073.83,386.0,1.0,0.7899999999999636,0.002095490716180275,8.398726790450542
636,1073.83,386.0,76.3,879.0,29.7,1,Apollo,1000,4.0,2500,1074.9,360.5,1.0,1.0700000000001637,0.0027720207253890254,11.210051813473218
637,1074.9,360.5,75.1,763.0,30.8,1,Apollo,1000,4.0,2500,1076.02,370.1,1.0,1.1199999999998909,0.0031067961165045514,12.246990291260943
638,1076.02,370.1,75.7,658.0,30.3,1,Apollo,1000,4.0,2500,1077.11,351.8,1.0,1.0899999999999181,0.002945149959470192,11.722874898675151
639,1077.11,351.8,80.8,625.0,25.0,1,Apollo,1000,4.0,2500,1078.53,364.0,1.0,1.4200000000000728,0.004036384309266836,15.77096077316738
640,1078.53,364.0,76.7,827.0,29.3,1,Apollo,1000,4.0,2500,1080.4,356.0,1.0,1.8700000000001182,0.005137362637362962,20.323406593407878
641,1080.4,356.0,76.7,842.0,30.0,1,Apollo,1000,4.0,2500,1081.43,337.7,1.0,1.0299999999999727,0.0028932584269662155,11.35314606741543
642,1081.43,337.7,73.5,848.0,28.9,1,Apollo,1000,4.0,2500,1082.75,384.4,1.0,1.3199999999999363,0.003908794788273427,15.051986970683313
643,1082.75,384.4,75.0,845.0,30.9,1,Apollo,1000,4.0,2500,1083.96,401.6,1.0,1.2100000000000364,0.0031477627471384923,12.709406867846376
644,1083.96,401.6,79.0,774.0,26.1,1,Apollo,1000,4.0,2500,1085.07,395.7,1.0,1.1099999999999,0.0027639442231073208,11.3498605577679
645,1085.07,395.7,83.5,648.0,22.7,1,Apollo,1000,4.0,2500,1086.02,341.8,1.0,0.9500000000000455,0.0024008086934547523,9.802021733637062
646,1086.02,341.8,77.91,745.0,27.7,1,Apollo,1000,4.0,2500,1086.97,327.2,1.0,0.9500000000000455,0.0027794031597426724,10.748507899356863
647,1086.97,327.2,79.0,924.0,27.0,1,Apollo,1000,4.0,2500,1088.59,338.9,1.0,1.6199999999998909,0.004951100244498444,18.857750611245674
648,1088.59,338.9,75.2,851.0,30.8,1,Apollo,1000,4.0,2500,1090.36,364.1,1.0,1.7699999999999818,0.005222779580997291,20.136948952493157
649,1090.36,364.1,81.2,816.0,24.8,1,Apollo,1000,4.0,2500,1092.72,352.6,1.0,2.3600000000001273,0.006481735786872087,25.64433946718073
650,1092.72,352.6,76.5,772.0,24.5,1,Apollo,1000,4.0,2500,1094.6,347.1,1.0,1.8799999999998818,0.00533182076006773,20.849551900168855
651,1094.6,347.1,77.5,710.0,28.7,1,Apollo,1000,4.0,2500,1096.39,294.8,1.0,1.790000000000191,0.00515701526937537,20.05253817343919
652,1096.39,294.8,76.7,800.0,29.4,1,Apollo,1000,4.0,2500,1097.16,277.3,1.0,0.7699999999999818,0.0026119402985074008,9.609850746268428
653,1097.16,277.3,78.1,716.0,27.9,1,Apollo,1000,4.0,2500,1098.33,327.9,1.0,1.1699999999998454,0.004219257122249713,15.228142805623664
654,1098.33,327.9,74.6,834.0,31.2,1,Apollo,1000,4.0,2500,1099.18,321.8,1.0,0.8500000000001364,0.002592253735895506,9.880634339739311
655,1099.18,321.8,74.1,887.0,31.9,1,Apollo,1000,4.0,2500,1100.52,319.4,1.0,1.3399999999999181,0.004164077066500678,15.770192666251367
656,1100.52,319.4,76.3,938.0,29.7,1,Apollo,1000,4.0,2500,1101.2,320.4,1.0,0.6800000000000637,0.0021289918597372066,8.04247964934327
657,1101.2,320.4,75.0,814.0,30.0,1,Apollo,1000,4.0,2500,1102.5,331.5,1.0,1.2999999999999545,0.004057428214731444,15.343570536828427
658,1102.5,331.5,76.3,726.0,29.7,1,Apollo,1000,4.0,2500,1103.17,319.61,1.0,0.6700000000000728,0.0020211161387634173,7.732790346908835
659,1103.17,319.61,73.5,886.0,32.21,1,Apollo,1000,4.0,2500,1103.99,300.8,1.0,0.8199999999999363,0.0025656268577326628,9.694067144331402
660,1103.99,300.8,81.41,801.0,33.5,1,Apollo,1000,4.0,2500,1104.92,289.0,1.0,0.9300000000000637,0.0030917553191491475,11.449388297873124
661,1104.92,289.0,75.1,832.0,30.8,1,Apollo,1000,4.0,2500,1106.73,303.4,1.0,1.8099999999999454,0.006262975778546524,22.897439446366093
662,1106.73,303.4,78.8,814.0,27.2,1,Apollo,1000,4.0,2500,1107.03,294.7,1.0,0.2999999999999545,0.0009887936717203512,3.671984179300696
663,1107.03,294.7,74.3,898.0,31.7,1,Apollo,1000,4.0,2500,1108.43,275.4,1.0,1.400000000000091,0.004750593824228337,17.476484560571205
664,1108.43,275.4,82.6,801.0,31.9,1,Apollo,1000,4.0,2500,1110.11,272.2,1.0,1.6799999999998363,0.006100217864923154,21.97054466230723
665,1110.11,272.2,77.6,939.0,28.9,1,Apollo,1000,4.0,2500,1110.93,273.9,1.0,0.8200000000001637,0.0030124908155773835,10.811227038944114
666,1110.93,273.9,76.91,785.0,29.1,1,Apollo,1000,4.0,2500,1114.16,317.11,1.0,3.230000000000018,0.011792625045637162,42.40156261409298
667,1114.16,317.11,83.7,608.0,30.1,1,Apollo,1000,4.0,2500,1114.89,269.2,1.0,0.7300000000000182,0.002302040301472732,8.675100753681903
668,1114.89,269.2,82.8,671.0,29.8,1,Apollo,1000,4.0,2500,1116.6,255.5,1.0,1.709999999999809,0.006352154531945799,22.720386329863732
669,1116.6,255.5,80.0,693.0,31.7,1,Apollo,1000,4.0,2500,1118.24,274.11,1.0,1.6400000000001,0.006418786692759687,22.606966731899618
670,1118.24,274.11,79.0,682.0,33.8,1,Apollo,1000,4.0,2500,1118.92,263.4,1.0,0.6800000000000637,0.002480755900915923,8.921889752290062
671,1118.92,263.4,81.8,611.0,30.9,1,Apollo,1000,4.0,2500,1120.29,220.3,1.0,1.3699999999998909,0.005201214882307862,18.48303720576922
672,1120.29,220.3,81.7,735.0,29.6,1,Apollo,1000,4.0,2500,1120.95,224.0,1.0,0.6600000000000819,0.0029959146618251556,10.129786654563215
673,1120.95,224.0,80.0,594.0,32.21,1,Apollo,1000,4.0,2500,1122.66,269.8,1.0,1.7100000000000364,0.007633928571428734,25.92482142857198
674,1122.66,269.8,82.6,591.0,29.9,1,Apollo,1000,4.0,2500,1124.6,268.8,1.0,1.9399999999998272,0.0071905114899919464,25.736278724979176
675,1124.6,268.8,85.8,647.0,26.3,1,Apollo,1000,4.0,2500,1125.24,279.9,1.0,0.6400000000001,0.0023809523809527533,8.512380952382284
676,1125.24,279.9,74.8,626.0,37.71,1,Apollo,1000,4.0,2500,1126.03,273.9,1.0,0.7899999999999636,0.0028224365844943325,10.216091461235685
677,1126.03,273.9,84.7,607.0,28.3,1,Apollo,1000,4.0,2500,1126.83,265.0,1.0,0.7999999999999545,0.0029207740051111885,10.501935012777789
678,1126.83,265.0,87.5,564.0,25.7,1,Apollo,1000,4.0,2500,1128.57,275.11,1.0,1.740000000000009,0.006566037735849091,23.375094339622763
679,1128.57,275.11,80.91,579.0,31.3,1,Apollo,1000,4.0,2500,1130.26,280.5,1.0,1.6900000000000546,0.006142997346516137,22.11749336629056
680,1130.26,280.5,79.3,710.0,33.0,1,Apollo,1000,4.0,2500,1131.03,280.4,1.0,0.7699999999999818,0.0027450980392156213,9.94274509803898
681,1131.03,280.4,79.91,672.0,32.71,1,Apollo,1000,4.0,2500,1131.96,277.4,1.0,0.9300000000000637,0.003316690442225619,12.011726105564302
682,1131.96,277.4,79.2,737.0,33.21,1,Apollo,1000,4.0,2500,1132.84,273.3,1.0,0.8799999999998818,0.003172314347512191,11.450785868780006
683,1132.84,273.3,85.2,632.0,29.6,1,Apollo,1000,4.0,2500,1134.65,294.3,1.0,1.8100000000001728,0.006622758873033929,23.796897182585514
684,1134.65,294.3,80.7,756.0,31.7,1,Apollo,1000,4.0,2500,1135.02,307.11,1.0,0.36999999999989086,0.0012572205232751982,4.623051308187559
685,1135.02,307.11,79.8,697.0,32.3,1,Apollo,1000,4.0,2500,1136.65,324.9,1.0,1.6300000000001091,0.0053075445280196315,19.788861320049513
686,1136.65,324.9,79.2,643.0,33.4,1,Apollo,1000,4.0,2500,1138.46,311.3,1.0,1.8099999999999454,0.0055709449061247945,21.167362265311766
687,1138.46,311.3,83.6,738.0,29.1,1,Apollo,1000,4.0,2500,1140.19,295.7,1.0,1.7300000000000182,0.00555734018631551,20.813350465788847
688,1140.19,295.7,83.8,576.0,28.7,1,Apollo,1000,4.0,2500,1141.11,289.4,1.0,0.9199999999998454,0.003111261413594337,11.458153533985223
689,1141.11,289.4,82.3,754.0,30.5,1,Apollo,1000,4.0,2500,1142.02,292.3,1.0,0.9100000000000819,0.003144436765722467,11.501091914306494
690,1142.02,292.3,79.2,702.0,27.3,1,Apollo,1000,4.0,2500,1142.86,294.4,1.0,0.8399999999999181,0.002873759835784872,10.544399589461852
691,1142.86,294.4,81.5,627.0,31.1,1,Apollo,1000,4.0,2500,1144.42,264.3,1.0,1.5600000000001728,0.005298913043478848,19.48728260869781
692,1144.42,264.3,84.4,689.0,28.2,1,Apollo,1000,4.0,2500,1146.07,259.7,1.0,1.6499999999998636,0.006242905788875761,22.207264472188854
693,1146.07,259.7,83.9,657.0,30.0,1,Apollo,1000,4.0,2500,1146.82,257.8,1.0,0.75,0.002887947631882942,10.219869079707355
694,1146.82,257.8,83.5,702.0,29.1,1,Apollo,1000,4.0,2500,1148.28,245.5,1.0,1.4600000000000364,0.005663304887509838,19.99826221877474
695,1148.28,245.5,82.4,630.0,28.8,1,Apollo,1000,4.0,2500,1149.05,240.1,1.0,0.7699999999999818,0.0031364562118125533,10.92114052953131
696,1149.05,240.1,82.6,715.0,32.4,1,Apollo,1000,4.0,2500,1150.75,240.7,1.0,1.7000000000000455,0.007080383173677825,24.500957934194744
697,1150.75,240.7,80.1,706.0,32.5,1,Apollo,1000,4.0,2500,1152.16,240.6,1.0,1.4100000000000819,0.005857914416286174,20.284786040715762
698,1152.16,240.6,81.1,677.0,31.2,1,Apollo,1000,4.0,2500,1152.76,242.9,1.0,0.599999999999909,0.002493765586034535,8.634413965085972
699,1152.76,242.9,82.2,784.0,30.6,1,Apollo,1000,4.0,2500,1154.25,247.4,1.0,1.490000000000009,0.00613421160971597,21.295529024289962
700,1154.25,247.4,82.0,679.0,30.6,1,Apollo,1000,4.0,2500,1155.09,252.1,1.0,0.8399999999999181,0.003395311236863048,11.848278092157292
701,1155.09,252.1,81.8,741.0,32.9,1,Apollo,1000,4.0,2500,1156.52,233.5,1.0,1.4300000000000637,0.00567235224117439,19.90088060293623
702,1156.52,233.5,79.8,713.0,32.71,1,Apollo,1000,4.0,2500,1157.23,233.2,1.0,0.7100000000000364,0.003040685224839556,10.441713062099035
703,1157.23,233.2,82.1,664.0,30.2,1,Apollo,1000,4.0,2500,1158.65,236.1,1.0,1.4200000000000728,0.006089193825043194,20.902984562608275
704,1158.65,236.1,87.8,573.0,26.7,1,Apollo,1000,4.0,2500,1160.1,228.6,1.0,1.449999999999818,0.006141465480727734,21.15366370181861
705,1160.1,228.6,83.1,603.0,29.5,1,Apollo,1000,4.0,2500,1160.91,245.2,1.0,0.8100000000001728,0.003543307086614929,12.098267716538015
706,1160.91,245.2,79.1,658.0,33.0,1,Apollo,1000,4.0,2500,1162.4,247.5,1.0,1.490000000000009,0.006076672104404606,21.15168026101155
707,1162.4,247.5,84.4,646.0,28.6,1,Apollo,1000,4.0,2500,1163.08,239.8,1.0,0.6799999999998363,0.002747474747474086,9.58868686868456
708,1163.08,239.8,83.0,692.0,29.2,1,Apollo,1000,4.0,2500,1164.53,225.0,1.0,1.4500000000000455,0.006046705587990181,20.916763969975634
709,1164.53,225.0,80.1,759.0,32.5,1,Apollo,1000,4.0,2500,1165.16,237.5,1.0,0.6300000000001091,0.0028000000000004853,9.52000000000165
710,1165.16,237.5,79.5,678.0,33.1,1,Apollo,1000,4.0,2500,1166.0,246.5,1.0,0.8399999999999181,0.003536842105262813,12.202105263156705
711,1166.0,246.5,78.6,758.0,33.8,1,Apollo,1000,4.0,2500,1166.84,262.7,1.0,0.8399999999999181,0.0034077079107501748,11.879269776875109
712,1166.84,262.7,81.3,689.0,31.4,1,Apollo,1000,4.0,2500,1168.29,248.4,1.0,1.4500000000000455,0.00551960411115358,19.599010277884133
713,1168.29,248.4,86.1,632.0,28.0,1,Apollo,1000,4.0,2500,1169.06,216.1,1.0,0.7699999999999818,0.0030998389694041136,10.829597423510211
714,1169.06,216.1,78.7,701.0,33.6,1,Apollo,1000,4.0,2500,1170.31,213.3,1.0,1.25,0.005784359093012495,19.460897732531237
715,1170.31,213.3,82.9,666.0,30.2,1,Apollo,1000,4.0,2500,1171.02,222.1,1.0,0.7100000000000364,0.00332864510079717,11.16161275199307
716,1171.02,222.1,82.2,767.0,30.5,1,Apollo,1000,4.0,2500,1171.57,213.4,1.0,0.5499999999999545,0.0024763619990993,8.390904997748068
717,1171.57,213.4,84.7,697.0,26.5,1,Apollo,1000,4.0,2500,1172.91,214.4,1.0,1.3400000000001455,0.006279287722587374,21.05821930646902
718,1172.91,214.4,80.41,603.0,32.5,1,Apollo,1000,4.0,2500,1174.27,157.2,1.0,1.3599999999999,0.006343283582089085,21.298208955222314
719,1174.27,157.2,86.1,630.0,30.8,1,Apollo,1000,4.0,2500,1175.04,201.6,1.0,0.7699999999999818,0.004898218829516424,15.325547073790986
720,1175.04,201.6,81.3,724.0,31.3,1,Apollo,1000,4.0,2500,1176.36,159.7,1.0,1.3199999999999363,0.006547619047618732,21.649047619046577
721,1176.36,159.7,83.9,793.0,28.9,1,Apollo,1000,4.0,2500,1177.0,176.1,1.0,0.6400000000001,0.004007514088917346,12.578785222293766
722,1177.0,176.1,81.7,679.0,28.2,1,Apollo,1000,4.0,2500,1178.36,219.1,1.0,1.3599999999999,0.007722884724587734,24.747211811468933
723,1178.36,219.1,77.8,714.0,34.6,1,Apollo,1000,4.0,2500,1179.05,225.3,1.0,0.6900000000000546,0.003149246919215219,10.633117298038266
724,1179.05,225.3,82.0,763.0,30.7,1,Apollo,1000,4.0,2500,1180.59,250.2,1.0,1.5399999999999636,0.006835330670217326,23.24832667554317
725,1180.59,250.2,81.3,748.0,31.3,1,Apollo,1000,4.0,2500,1182.72,236.7,1.0,2.130000000000109,0.008513189448441684,29.802973621104645
726,1182.72,236.7,82.0,684.0,32.6,1,Apollo,1000,4.0,2500,1184.11,226.9,1.0,1.3899999999998727,0.005872412336290126,20.241030840724807
727,1184.11,226.9,77.41,619.0,34.1,1,Apollo,1000,4.0,2500,1184.81,233.8,1.0,0.7000000000000455,0.0030850594975762253,10.512648743940744
728,1184.81,233.8,78.91,777.0,33.71,1,Apollo,1000,4.0,2500,1186.12,212.3,1.0,1.3099999999999454,0.00560307955517513,19.24769888793761
729,1186.12,212.3,82.1,695.0,29.5,1,Apollo,1000,4.0,2500,1186.83,232.9,1.0,0.7100000000000364,0.003344324069712842,11.20081017428225
730,1186.83,232.9,77.6,660.0,34.71,1,Apollo,1000,4.0,2500,1188.12,220.0,1.0,1.2899999999999636,0.005538857878917834,19.00714469729444
731,1188.12,220.0,81.41,678.0,31.2,1,Apollo,1000,4.0,2500,1188.84,225.9,1.0,0.7200000000000273,0.0032727272727273967,11.061818181818602
732,1188.84,225.9,84.9,562.0,27.9,1,Apollo,1000,4.0,2500,1190.51,177.0,1.0,1.6700000000000728,0.007392651615759507,25.16162903939906
733,1190.51,177.0,84.3,665.0,28.5,1,Apollo,1000,4.0,2500,1191.37,196.7,1.0,0.8599999999999,0.004858757062146327,15.586892655365418
734,1191.37,196.7,78.3,568.0,34.3,1,Apollo,1000,4.0,2500,1192.26,189.1,1.0,0.8900000000001,0.004524656837824607,14.871642094561917
735,1192.26,189.1,78.2,536.0,33.9,1,Apollo,1000,4.0,2500,1193.16,158.0,1.0,0.900000000000091,0.004759386567953944,15.498466419885224
736,1193.16,158.0,80.41,585.0,32.1,1,Apollo,1000,4.0,2500,1194.17,162.81,1.0,1.009999999999991,0.006392405063291082,20.02101265822767
737,1194.17,162.81,80.41,515.0,32.21,1,Apollo,1000,4.0,2500,1194.77,180.7,1.0,0.599999999999909,0.0036852773171175547,11.613193292793524
738,1194.77,180.7,80.0,651.0,32.21,1,Apollo,1000,4.0,2500,1196.59,195.7,1.0,1.8199999999999363,0.010071942446042812,32.459856115106774
739,1196.59,195.7,85.5,641.0,28.5,1,Apollo,1000,4.0,2500,1197.19,210.4,1.0,0.6000000000001364,0.0030659172202357507,10.064793050589923
740,1197.19,210.4,79.41,578.0,33.1,1,Apollo,1000,4.0,2500,1198.41,201.2,1.0,1.2200000000000273,0.005798479087452601,19.376197718631612
741,1198.41,201.2,85.4,468.0,27.3,1,Apollo,1000,4.0,2500,1199.2,151.81,1.0,0.7899999999999636,0.003926441351888487,12.976103379721073
742,1199.2,151.81,79.5,522.0,30.4,1,Apollo,1000,4.0,2500,1200.59,79.2,1.0,1.3899999999998727,0.00915618206969154,28.45045517422834
743,1200.59,79.2,116.0,80.0,0.9,1,Apollo,1000,4.0,2500,1202.39,359.2,1.0,1.800000000000182,0.022727272727275025,64.01818181818828
744,1202.39,359.2,82.1,764.0,32.21,1,Apollo,1000,4.0,2500,1203.07,295.4,1.0,0.6799999999998363,0.0018930957683737093,7.452739420933618
745,1203.07,295.4,87.8,628.0,25.6,1,Apollo,1000,4.0,2500,1204.36,211.0,1.0,1.2899999999999636,0.004366960054163723,16.07740013540916
746,1204.36,211.0,84.5,695.0,30.2,1,Apollo,1000,4.0,2500,1205.03,177.3,1.0,0.6700000000000728,0.0031753554502373118,10.618388625593571
747,1205.03,177.3,83.0,639.0,31.3,1,Apollo,1000,4.0,2500,1206.68,205.6,1.0,1.650000000000091,0.00930626057529662,29.865651438241912
748,1206.68,205.6,83.7,549.0,28.6,1,Apollo,1000,4.0,2500,1208.44,194.3,1.0,1.759999999999991,0.008560311284046648,28.440778210116584
749,1208.44,194.3,84.9,623.0,29.7,1,Apollo,1000,4.0,2500,1209.17,208.1,1.0,0.7300000000000182,0.0037570766855379214,12.312691713844876
750,1209.17,208.1,89.3,605.0,25.6,1,Apollo,1000,4.0,2500,1210.34,201.9,1.0,1.1699999999998454,0.005622296972608579,18.73574243152083
751,1210.34,201.9,87.2,526.0,27.4,1,Apollo,1000,4.0,2500,1211.0,190.2,1.0,0.6600000000000819,0.003268945022288667,10.812362555721995
752,1211.0,190.2,83.8,639.0,30.7,1,Apollo,1000,4.0,2500,1212.54,159.81,1.0,1.5399999999999636,0.008096740273396234,26.40185068349044
753,1212.54,159.81,84.7,568.0,29.7,1,Apollo,1000,4.0,2500,1213.35,146.0,1.0,0.8099999999999454,0.005068518866153216,15.911297165382821
754,1213.35,146.0,85.9,483.0,32.3,1,Apollo,1000,4.0,2500,1214.51,171.3,1.0,1.1600000000000819,0.007945205479452615,24.503013698631865
755,1214.51,171.3,85.0,542.0,29.5,1,Apollo,1000,4.0,2500,1215.01,166.9,1.0,0.5,0.002918855808523059,9.297139521307647
756,1215.01,166.9,82.5,487.0,31.9,1,Apollo,1000,4.0,2500,1216.67,143.0,1.0,1.6600000000000819,0.00994607549430846,31.505188735771476
757,1216.67,143.0,87.3,495.0,27.5,1,Apollo,1000,4.0,2500,1217.06,135.1,1.0,0.38999999999987267,0.0027272727272718367,8.378181818179083
758,1217.06,135.1,85.2,508.0,29.9,1,Apollo,1000,4.0,2500,1218.59,175.0,1.0,1.5299999999999727,0.011324944485566046,34.432361213915
759,1218.59,175.0,80.91,593.0,33.6,1,Apollo,1000,4.0,2500,1219.19,189.1,1.0,0.6000000000001364,0.003428571428572208,10.971428571431066
760,1219.19,189.1,84.5,562.0,29.9,1,Apollo,1000,4.0,2500,1220.25,176.7,1.0,1.0599999999999454,0.005605499735589347,18.25374933897315
761,1220.25,176.7,79.8,576.0,34.6,1,Apollo,1000,4.0,2500,1222.51,178.8,1.0,2.259999999999991,0.012790039615166898,41.01509903791721
762,1222.51,178.8,84.3,435.0,30.2,1,Apollo,1000,4.0,2500,1223.0,174.8,1.0,0.4900000000000091,0.002740492170022422,8.811230425056092
763,1223.0,174.8,82.2,499.0,31.8,1,Apollo,1000,4.0,2500,1224.51,167.0,1.0,1.509999999999991,0.00863844393592672,27.636109839816765
764,1224.51,167.0,86.6,540.0,28.1,1,Apollo,1000,4.0,2500,1225.01,161.31,1.0,0.5,0.0029940119760479044,9.48502994011976
765,1225.01,161.31,83.8,509.0,30.8,1,Apollo,1000,4.0,2500,1226.51,169.4,1.0,1.5,0.009298865538404314,29.247163846010785
766,1226.51,169.4,84.6,597.0,30.0,1,Apollo,1000,4.0,2500,1227.04,175.8,1.0,0.5299999999999727,0.0031286894923256946,9.941723730814127
767,1227.04,175.8,80.3,540.0,35.1,1,Apollo,1000,4.0,2500,1228.29,208.4,1.0,1.25,0.007110352673492605,22.775881683731512
768,1228.29,208.4,82.4,557.0,32.21,1,Apollo,1000,4.0,2500,1229.17,221.9,1.0,0.8800000000001091,0.004222648752399756,14.076621880999827
769,1229.17,221.9,83.1,599.0,32.4,1,Apollo,1000,4.0,2500,1230.28,219.0,1.0,1.1099999999999,0.005002253267237043,16.945633168092208
770,1230.28,219.0,82.1,628.0,32.4,1,Apollo,1000,4.0,2500,1231.0,220.1,1.0,0.7200000000000273,0.003287671232876837,11.099178082192202
771,1231.0,220.1,81.6,577.0,33.21,1,Apollo,1000,4.0,2500,1232.31,220.8,1.0,1.3099999999999454,0.005951840072693983,20.11960018173474
772,1232.31,220.8,79.3,634.0,35.1,1,Apollo,1000,4.0,2500,1233.01,206.0,1.0,0.7000000000000455,0.003170289855072669,10.725724637681854
773,1233.01,206.0,79.2,467.0,35.6,1,Apollo,1000,4.0,2500,1234.58,175.1,1.0,1.5699999999999363,0.007621359223300661,25.333398058251397
774,1234.58,175.1,81.1,582.0,33.6,1,Apollo,1000,4.0,2500,1236.58,215.5,1.0,2.0,0.011422044545973729,36.55511136493432
775,1236.58,215.5,80.2,671.0,34.3,1,Apollo,1000,4.0,2500,1238.53,200.9,1.0,1.9500000000000455,0.009048723897912043,30.42180974478029
776,1238.53,200.9,78.6,560.0,36.8,1,Apollo,1000,4.0,2500,1239.01,180.2,1.0,0.4800000000000182,0.0023892483822798316,7.8931209556996516
777,1239.01,180.2,78.7,684.0,35.8,1,Apollo,1000,4.0,2500,1240.55,167.5,1.0,1.5399999999999636,0.008546059933407124,27.525149833517666
778,1240.55,167.5,75.2,562.0,35.3,1,Apollo,1000,4.0,2500,1241.04,179.4,1.0,0.4900000000000091,0.0029253731343284123,9.273432835821067
779,1241.04,179.4,82.4,554.0,32.1,1,Apollo,1000,4.0,2500,1242.72,179.2,1.0,1.6800000000000637,0.009364548494983633,30.131371237459337
780,1242.72,179.2,79.3,625.0,35.1,1,Apollo,1000,4.0,2500,1244.53,193.7,1.0,1.8099999999999454,0.010100446428571126,32.4911160714276
781,1244.53,193.7,80.41,570.0,34.1,1,Apollo,1000,4.0,2500,1245.03,168.6,1.0,0.5,0.002581311306143521,8.453278265358803
782,1245.03,168.6,78.2,591.0,34.5,1,Apollo,1000,4.0,2500,1246.15,181.7,1.0,1.1200000000001182,0.0066429418742593015,21.087354685648727
783,1246.15,181.7,81.1,605.0,33.1,1,Apollo,1000,4.0,2500,1246.98,205.1,1.0,0.8299999999999272,0.004567969179966579,14.739922949916156
784,1246.98,205.1,78.6,618.0,35.9,1,Apollo,1000,4.0,2500,1248.56,195.7,1.0,1.5799999999999272,0.007703559239395062,25.578898098487365
785,1248.56,195.7,79.3,589.0,35.5,1,Apollo,1000,4.0,2500,1249.08,172.0,1.0,0.5199999999999818,0.0026571282575369535,8.722820643842311
786,1249.08,172.0,78.91,497.0,37.71,1,Apollo,1000,4.0,2500,1250.53,155.9,1.0,1.4500000000000455,0.0084302325581398,26.87558139534968
787,1250.53,155.9,76.7,595.0,35.5,1,Apollo,1000,4.0,2500,1251.01,150.7,1.0,0.4800000000000182,0.0030788967286723428,9.61724182168093
788,1251.01,150.7,77.3,591.0,37.3,1,Apollo,1000,4.0,2500,1252.72,192.0,1.0,1.7100000000000364,0.011347047113470714,35.20761778367693
789,1252.72,192.0,76.0,582.0,34.6,1,Apollo,1000,4.0,2500,1253.22,192.8,1.0,0.5,0.0026041666666666665,8.510416666666666
790,1253.22,192.8,76.8,517.0,37.71,1,Apollo,1000,4.0,2500,1254.51,190.9,1.0,1.2899999999999636,0.006690871369294417,21.8871784232359
791,1254.51,190.9,81.7,508.0,34.5,1,Apollo,1000,4.0,2500,1255.03,190.2,1.0,0.5199999999999818,0.0027239392352015807,8.88984808800388
792,1255.03,190.2,78.8,695.0,34.0,1,Apollo,1000,4.0,2500,1256.58,166.1,1.0,1.5499999999999545,0.008149316508937722,26.57329127234412
793,1256.58,166.1,75.6,535.0,38.71,1,Apollo,1000,4.0,2500,1257.09,175.5,1.0,0.5099999999999909,0.0030704394942804992,9.716098735701213
794,1257.09,175.5,77.0,717.0,35.0,1,Apollo,1000,4.0,2500,1258.31,195.3,1.0,1.2200000000000273,0.006951566951567107,22.25891737891788
795,1258.31,195.3,79.3,675.0,35.3,1,Apollo,1000,4.0,2500,1259.02,190.1,1.0,0.7100000000000364,0.0036354326676909187,11.928581669227443
796,1259.02,190.1,72.8,601.0,41.6,1,Apollo,1000,4.0,2500,1260.53,164.7,1.0,1.509999999999991,0.00794318779589685,25.89796948974209
797,1260.53,164.7,74.6,717.0,40.1,1,Apollo,1000,4.0,2500,1261.03,171.6,1.0,0.5,0.0030358227079538558,9.58955676988464
798,1261.03,171.6,71.3,668.0,43.1,1,Apollo,1000,4.0,2500,1262.65,191.5,1.0,1.6200000000001182,0.00944055944056013,30.081398601400796
799,1262.65,191.5,71.8,661.0,41.8,1,Apollo,1000,4.0,2500,1264.3,236.5,1.0,1.6499999999998636,0.008616187989555423,28.14046997388801
800,1264.3,236.5,75.1,715.0,41.1,1,Apollo,1000,4.0,2500,1264.92,254.8,1.0,0.6200000000001182,0.002621564482030098,9.033911205075718
801,1264.92,254.8,75.3,599.0,39.3,1,Apollo,1000,4.0,2500,1266.46,248.3,1.0,1.5399999999999636,0.006043956043955901,21.26989010988961
802,1266.46,248.3,71.8,679.0,41.3,1,Apollo,1000,4.0,2500,1267.0,225.1,1.0,0.5399999999999636,0.0021747885622229704,7.59697140555728
803,1267.0,225.1,74.7,651.0,39.9,1,Apollo,1000,4.0,2500,1268.3,214.8,1.0,1.2999999999999545,0.005775211017325431,19.638027543313395
804,1268.3,214.8,74.2,666.0,40.3,1,Apollo,1000,4.0,2500,1269.04,216.3,1.0,0.7400000000000091,0.0034450651769087942,11.572662942272022
805,1269.04,216.3,74.6,684.0,40.0,1,Apollo,1000,4.0,2500,1270.55,226.8,1.0,1.509999999999991,0.0069810448451224725,23.492612112806146
806,1270.55,226.8,77.6,594.0,38.71,1,Apollo,1000,4.0,2500,1271.06,224.5,1.0,0.5099999999999909,0.0022486772486772083,7.661693121692984
807,1271.06,224.5,72.0,604.0,42.3,1,Apollo,1000,4.0,2500,1272.72,189.2,1.0,1.6600000000000819,0.007394209354120631,25.125523385301904
808,1272.72,189.2,71.8,738.0,42.1,1,Apollo,1000,4.0,2500,1274.78,219.2,1.0,2.0599999999999454,0.010887949260041996,35.45987315010477
809,1274.78,219.2,74.3,694.0,42.3,1,Apollo,1000,4.0,2500,1276.74,220.3,1.0,1.9600000000000364,0.008941605839416224,30.194014598540704
810,1276.74,220.3,72.7,712.0,41.8,1,Apollo,1000,4.0,2500,1277.44,233.8,1.0,0.7000000000000455,0.0031774852473901295,10.743713118475505
811,1277.44,233.8,71.2,742.0,43.0,1,Apollo,1000,4.0,2500,1278.8,226.0,1.0,1.3599999999999,0.005816937553464072,19.98234388365978
812,1278.8,226.0,71.6,686.0,42.7,1,Apollo,1000,4.0,2500,1280.23,229.6,1.0,1.4300000000000637,0.006327433628318866,21.53858407079742
813,1280.23,229.6,73.7,676.0,40.9,1,Apollo,1000,4.0,2500,1280.95,238.6,1.0,0.7200000000000273,0.003135888501742279,10.719721254355807
814,1280.95,238.6,72.5,624.0,41.9,1,Apollo,1000,4.0,2500,1282.4,237.5,1.0,1.4500000000000455,0.006077116512992646,20.992791282481797
815,1282.4,237.5,78.91,682.0,35.71,1,Apollo,1000,4.0,2500,1283.1,237.3,1.0,0.6999999999998181,0.002947368421051866,10.168421052628936
816,1283.1,237.3,74.2,710.0,40.8,1,Apollo,1000,4.0,2500,1284.43,218.8,1.0,1.3300000000001546,0.005604719764012451,19.331799410031746
817,1284.43,218.8,76.8,624.0,37.8,1,Apollo,1000,4.0,2500,1285.04,206.9,1.0,0.6099999999999,0.0027879341864712063,9.409835466177615
818,1285.04,206.9,73.2,648.0,41.4,1,Apollo,1000,4.0,2500,1286.58,238.2,1.0,1.5399999999999636,0.007443209279845159,24.768023199612752
819,1286.58,238.2,76.5,663.0,39.1,1,Apollo,1000,4.0,2500,1287.17,231.4,1.0,0.5900000000001455,0.002476910159530418,8.552275398826627
820,1287.17,231.4,75.2,711.0,39.4,1,Apollo,1000,4.0,2500,1288.54,207.8,1.0,1.3699999999998909,0.005920484010371179,20.28121002592751
821,1288.54,207.8,73.8,678.0,40.71,1,Apollo,1000,4.0,2500,1289.03,199.4,1.0,0.4900000000000091,0.0023580365736285327,7.855091434071368
822,1289.03,199.4,73.3,675.0,41.0,1,Apollo,1000,4.0,2500,1291.24,296.5,1.0,2.2100000000000364,0.011083249749247926,36.54812437311996
823,1291.24,296.5,73.1,664.0,41.4,1,Apollo,1000,4.0,2500,1292.69,257.11,1.0,1.4500000000000455,0.004890387858347539,18.02596964586903
824,1292.69,257.11,75.0,630.0,39.5,1,Apollo,1000,4.0,2500,1294.04,219.5,1.0,1.349999999999909,0.005250670919061526,18.52667729765345
825,1294.04,219.5,78.41,672.0,36.4,1,Apollo,1000,4.0,2500,1294.75,233.3,1.0,0.7100000000000364,0.0032346241457860427,10.926560364465253
826,1294.75,233.3,80.5,743.0,34.0,1,Apollo,1000,4.0,2500,1296.26,249.7,1.0,1.509999999999991,0.006472353193313291,22.22088298328319
827,1296.26,249.7,73.5,735.0,41.1,1,Apollo,1000,4.0,2500,1297.03,245.7,1.0,0.7699999999999818,0.0030837004405285615,10.78925110132133
828,1297.03,245.7,75.7,668.0,38.21,1,Apollo,1000,4.0,2500,1298.64,265.9,1.0,1.6100000000001273,0.006552706552707071,22.82176638176819
829,1298.64,265.9,77.41,679.0,37.4,1,Apollo,1000,4.0,2500,1300.11,244.9,1.0,1.4699999999998,0.005528394133132004,19.700985332829212
830,1300.11,244.9,74.91,731.0,39.6,1,Apollo,1000,4.0,2500,1300.9,243.0,1.0,0.790000000000191,0.003225806451613683,11.22451612903497
831,1300.9,243.0,76.0,604.0,39.21,1,Apollo,1000,4.0,2500,1302.39,240.2,1.0,1.490000000000009,0.006131687242798392,21.289218106996017
832,1302.39,240.2,73.6,790.0,41.1,1,Apollo,1000,4.0,2500,1303.06,221.4,1.0,0.6699999999998454,0.002789342214820339,9.653355537050228
833,1303.06,221.4,74.2,613.0,40.21,1,Apollo,1000,4.0,2500,1304.47,238.3,1.0,1.4100000000000819,0.006368563685637226,21.56140921409339
834,1304.47,238.3,77.41,739.0,37.5,1,Apollo,1000,4.0,2500,1305.17,230.2,1.0,0.7000000000000455,0.0029374737725557927,10.143684431389664
835,1305.17,230.2,76.2,626.0,38.3,1,Apollo,1000,4.0,2500,1306.67,232.7,1.0,1.5,0.006516072980017376,22.29018245004344
836,1306.67,232.7,71.5,666.0,42.5,1,Apollo,1000,4.0,2500,1308.58,206.4,1.0,1.9099999999998545,0.008207993124193617,28.159982810483463
837,1308.58,206.4,75.91,593.0,38.6,1,Apollo,1000,4.0,2500,1310.68,235.0,1.0,2.1000000000001364,0.010174418604651824,33.83604651163011
838,1310.68,235.0,74.2,658.0,40.6,1,Apollo,1000,4.0,2500,1312.74,221.6,1.0,2.0599999999999454,0.00876595744680828,30.15489361702048
839,1312.74,221.6,74.5,657.0,40.0,1,Apollo,1000,4.0,2500,1314.1,231.7,1.0,1.3599999999999,0.006137184115523014,20.782960288807136
840,1314.1,231.7,73.41,622.0,41.2,1,Apollo,1000,4.0,2500,1314.84,232.7,1.0,0.7400000000000091,0.0031937850668968884,10.944462667242258
841,1314.84,232.7,77.7,600.0,37.8,1,Apollo,1000,4.0,2500,1316.63,205.6,1.0,1.790000000000191,0.007692307692308513,26.390769230772047
842,1316.63,205.6,77.5,673.0,36.71,1,Apollo,1000,4.0,2500,1317.24,201.2,1.0,0.6099999999999,0.002966926070038424,9.85731517509566
843,1317.24,201.2,73.91,708.0,40.6,1,Apollo,1000,4.0,2500,1318.5,179.0,1.0,1.259999999999991,0.006262425447316059,20.69606361829011
844,1318.5,179.0,76.5,658.0,38.0,1,Apollo,1000,4.0,2500,1319.0,174.4,1.0,0.5,0.002793296089385475,8.983240223463687
845,1319.0,174.4,77.5,575.0,38.21,1,Apollo,1000,4.0,2500,1320.52,171.4,1.0,1.5199999999999818,0.008715596330275126,27.868990825687742
846,1320.52,171.4,73.2,576.0,41.3,1,Apollo,1000,4.0,2500,1321.0,172.4,1.0,0.4800000000000182,0.0028004667444575158,8.921166861143863
847,1321.0,172.4,69.5,742.0,44.1,1,Apollo,1000,4.0,2500,1322.61,181.9,1.0,1.6099999999999,0.0093387470997674,29.7868677494181
848,1322.61,181.9,70.91,687.0,43.5,1,Apollo,1000,4.0,2500,1323.15,175.8,1.0,0.540000000000191,0.0029686641011555303,9.58166025288959
849,1323.15,175.8,75.91,641.0,38.6,1,Apollo,1000,4.0,2500,1324.62,228.4,1.0,1.4699999999998,0.008361774744026166,26.784436860064616
850,1324.62,228.4,74.91,680.0,39.6,1,Apollo,1000,4.0,2500,1326.07,244.1,1.0,1.4500000000000455,0.006348511383537853,21.671278458844814
851,1326.07,244.1,72.1,813.0,42.3,1,Apollo,1000,4.0,2500,1326.81,239.7,1.0,0.7400000000000091,0.0030315444489963502,10.538861122490912
852,1326.81,239.7,74.7,669.0,40.1,1,Apollo,1000,4.0,2500,1328.39,253.9,1.0,1.5800000000001546,0.006591572799333144,22.79893199833348
853,1328.39,253.9,73.41,769.0,41.3,1,Apollo,1000,4.0,2500,1329.27,259.11,1.0,0.8799999999998818,0.0034659314690818504,12.184828672704153
854,1329.27,259.11,76.3,676.0,41.1,1,Apollo,1000,4.0,2500,1330.71,249.8,1.0,1.4400000000000546,0.005557485237930047,19.653713094825335
855,1330.71,249.8,75.7,617.0,39.0,1,Apollo,1000,4.0,2500,1331.5,244.1,1.0,0.7899999999999636,0.0031625300240190695,11.066325060047529
856,1331.5,244.1,73.7,715.0,40.71,1,Apollo,1000,4.0,2500,1333.01,243.3,1.0,1.509999999999991,0.006185989348627574,21.504973371568898
857,1333.01,243.3,75.5,635.0,39.71,1,Apollo,1000,4.0,2500,1334.43,235.5,1.0,1.4200000000000728,0.005836415947390352,20.271039868476173
858,1334.43,235.5,76.6,661.0,36.71,1,Apollo,1000,4.0,2500,1336.1,262.61,1.0,1.6699999999998454,0.0070912951167721675,24.4082377919298
859,1336.1,262.61,72.6,687.0,41.7,1,Apollo,1000,4.0,2500,1336.93,271.0,1.0,0.8300000000001546,0.0031605803282439915,11.221450820610597
860,1336.93,271.0,73.91,698.0,39.5,1,Apollo,1000,4.0,2500,1338.41,251.5,1.0,1.4800000000000182,0.005461254612546193,19.573136531365556
861,1338.41,251.5,75.0,672.0,39.5,1,Apollo,1000,4.0,2500,1339.07,236.1,1.0,0.6599999999998545,0.002624254473160455,9.200636182900556
862,1339.07,236.1,72.0,657.0,42.5,1,Apollo,1000,4.0,2500,1340.62,243.2,1.0,1.5499999999999545,0.00656501482422683,22.612537060566893
863,1340.62,243.2,74.2,665.0,40.1,1,Apollo,1000,4.0,2500,1342.16,251.6,1.0,1.540000000000191,0.006332236842106049,21.990592105265886
864,1342.16,251.6,70.0,719.0,44.4,1,Apollo,1000,4.0,2500,1342.76,237.1,1.0,0.599999999999909,0.0023847376788549645,8.361844197137048
865,1342.76,237.1,73.2,664.0,38.3,1,Apollo,1000,4.0,2500,1344.46,261.0,1.0,1.7000000000000455,0.007169970476592347,24.72492619148105
866,1344.46,261.0,75.3,628.0,40.1,1,Apollo,1000,4.0,2500,1346.07,269.2,1.0,1.6099999999999,0.006168582375478545,21.86145593869596
867,1346.07,269.2,73.7,650.0,40.21,1,Apollo,1000,4.0,2500,1346.91,263.7,1.0,0.8400000000001455,0.00312035661218479,11.160891530462557
868,1346.91,263.7,76.1,730.0,40.1,1,Apollo,1000,4.0,2500,1348.49,253.5,1.0,1.5799999999999272,0.005991657186196159,21.299142965490105
869,1348.49,253.5,75.0,691.0,39.3,1,Apollo,1000,4.0,2500,1349.21,257.4,1.0,0.7200000000000273,0.00284023668639064,9.98059171597671
870,1349.21,257.4,73.6,627.0,40.9,1,Apollo,1000,4.0,2500,1350.04,265.0,1.0,0.8299999999999272,0.003224553224552942,11.381383061382063
871,1350.04,265.0,74.3,751.0,41.1,1,Apollo,1000,4.0,2500,1350.76,249.2,1.0,0.7200000000000273,0.0027169811320755747,9.672452830189046
872,1350.76,249.2,74.7,734.0,39.9,1,Apollo,1000,4.0,2500,1352.44,262.9,1.0,1.6800000000000637,0.00674157303370812,23.573932584270555
873,1352.44,262.9,76.41,648.0,34.3,1,Apollo,1000,4.0,2500,1353.2,263.0,1.0,0.7599999999999909,0.0028908330163559945,10.26708254088995
874,1353.2,263.0,75.2,754.0,39.3,1,Apollo,1000,4.0,2500,1354.07,259.0,1.0,0.8699999999998909,0.0033079847908741096,11.749961977184837
875,1354.07,259.0,79.5,673.0,35.21,1,Apollo,1000,4.0,2500,1354.82,267.11,1.0,0.75,0.002895752895752896,10.239382239382241
876,1354.82,267.11,73.41,713.0,41.2,1,Apollo,1000,4.0,2500,1356.69,257.11,1.0,1.8700000000001182,0.0070008610684741054,24.982152671185737
877,1356.69,257.11,73.3,793.0,39.71,1,Apollo,1000,4.0,2500,1357.1,245.8,1.0,0.4099999999998545,0.0015946482050478567,5.626620512619059
878,1357.1,245.8,72.7,750.0,41.8,1,Apollo,1000,4.0,2500,1358.62,244.1,1.0,1.5199999999999818,0.006183889340927509,21.5397233523187
879,1358.62,244.1,76.0,748.0,39.71,1,Apollo,1000,4.0,2500,1360.1,244.6,1.0,1.4800000000000182,0.0060630888979927005,21.077722244981825
880,1360.1,244.6,75.5,619.0,39.9,1,Apollo,1000,4.0,2500,1360.84,238.9,1.0,0.7400000000000091,0.003025347506132498,10.52336876533128
881,1360.84,238.9,72.0,746.0,42.5,1,Apollo,1000,4.0,2500,1362.29,235.1,1.0,1.4500000000000455,0.006069485140226227,20.973712850565747
882,1362.29,235.1,70.0,764.0,39.0,1,Apollo,1000,4.0,2500,1363.06,241.7,1.0,0.7699999999999818,0.0032752020416843123,11.268005104210708
883,1363.06,241.7,77.8,654.0,36.8,1,Apollo,1000,4.0,2500,1364.74,271.8,1.0,1.6800000000000637,0.0069507654116676195,24.096913529169303
884,1364.74,271.8,73.8,715.0,40.71,1,Apollo,1000,4.0,2500,1365.06,276.7,1.0,0.31999999999993634,0.0011773362766737906,4.223340691684221
885,1365.06,276.7,72.5,717.0,42.0,1,Apollo,1000,4.0,2500,1366.35,265.11,1.0,1.2899999999999636,0.004662088904951079,16.815222262377553
886,1366.35,265.11,74.8,676.0,41.0,1,Apollo,1000,4.0,2500,1367.08,251.3,1.0,0.7300000000000182,0.0027535739881559282,9.803934970389893
887,1367.08,251.3,74.5,684.0,40.0,1,Apollo,1000,4.0,2500,1368.58,240.0,1.0,1.5,0.005968961400716275,20.92240350179069
888,1368.58,240.0,74.8,667.0,39.71,1,Apollo,1000,4.0,2500,1370.17,252.2,1.0,1.5900000000001455,0.006625000000000606,22.9225000000021
889,1370.17,252.2,75.8,737.0,40.1,1,Apollo,1000,4.0,2500,1370.87,245.9,1.0,0.6999999999998181,0.002775574940522673,9.738937351305955
890,1370.87,245.9,75.7,721.0,39.0,1,Apollo,1000,4.0,2500,1372.39,248.6,1.0,1.5200000000002092,0.006181374542497801,21.53343635624534
891,1372.39,248.6,73.41,712.0,41.1,1,Apollo,1000,4.0,2500,1373.23,259.5,1.0,0.8399999999999181,0.00337892196299243,11.807304907480749
892,1373.23,259.5,77.6,772.0,37.21,1,Apollo,1000,4.0,2500,1374.1,267.8,1.0,0.8699999999998909,0.0033526011560689436,11.861502890171922
893,1374.1,267.8,74.7,709.0,40.1,1,Apollo,1000,4.0,2500,1374.88,276.8,1.0,0.7800000000002001,0.0029126213592240483,10.401553398060921
894,1374.88,276.8,75.3,667.0,39.4,1,Apollo,1000,4.0,2500,1376.37,246.2,1.0,1.4899999999997817,0.005382947976877824,19.417369942193687
895,1376.37,246.2,76.41,713.0,38.21,1,Apollo,1000,4.0,2500,1377.19,248.6,1.0,0.8200000000001637,0.003330625507717968,11.606563769295576
896,1377.19,248.6,74.8,786.0,39.8,1,Apollo,1000,4.0,2500,1378.0,256.61,1.0,0.8099999999999454,0.0032582461785999415,11.385615446499635
897,1378.0,256.61,72.2,740.0,41.7,1,Apollo,1000,4.0,2500,1379.02,358.3,1.0,1.0199999999999818,0.003974903550134374,14.017258875335862
898,1379.02,358.3,76.2,584.0,37.0,1,Apollo,1000,4.0,2500,1380.65,286.8,1.0,1.6300000000001091,0.004549260396316241,17.893150990791042
899,1380.65,286.8,76.1,827.0,38.4,1,Apollo,1000,4.0,2500,1382.2,251.0,1.0,1.5499999999999545,0.0054044630404461455,19.711157601115183
900,1382.2,251.0,76.2,731.0,38.3,1,Apollo,1000,4.0,2500,1382.96,256.2,1.0,0.7599999999999909,0.0030278884462151033,10.609721115537722
901,1382.96,256.2,76.0,805.0,38.8,1,Apollo,1000,4.0,2500,1384.59,245.6,1.0,1.6299999999998818,0.006362217017954262,22.425542544885182
902,1384.59,245.6,76.91,680.0,37.8,1,Apollo,1000,4.0,2500,1385.18,246.7,1.0,0.5900000000001455,0.0024022801302937525,8.365700325734963
903,1385.18,246.7,74.2,719.0,39.1,1,Apollo,1000,4.0,2500,1386.67,242.6,1.0,1.490000000000009,0.006039724361572798,21.059310903932033
904,1386.67,242.6,79.8,782.0,34.6,1,Apollo,1000,4.0,2500,1388.29,261.3,1.0,1.6199999999998909,0.0066776586974439025,23.17414674360932
905,1388.29,261.3,74.0,870.0,40.5,1,Apollo,1000,4.0,2500,1389.06,256.9,1.0,0.7699999999999818,0.002946804439341683,10.447011098354135
906,1389.06,256.9,79.3,785.0,35.8,1,Apollo,1000,4.0,2500,1390.6,248.1,1.0,1.5399999999999636,0.005994550408719206,21.14637602179787
907,1390.6,248.1,78.7,888.0,35.71,1,Apollo,1000,4.0,2500,1392.05,248.7,1.0,1.4500000000000455,0.005844417573559232,20.411043933898263
908,1392.05,248.7,76.3,734.0,38.21,1,Apollo,1000,4.0,2500,1392.91,258.5,1.0,0.8600000000001273,0.0034579815038203758,12.084953759551448
909,1392.91,258.5,72.91,790.0,42.4,1,Apollo,1000,4.0,2500,1394.42,249.5,1.0,1.509999999999991,0.0058413926499032535,20.643481624758095
910,1394.42,249.5,75.0,720.0,39.9,1,Apollo,1000,4.0,2500,1396.05,259.11,1.0,1.6299999999998818,0.006533066132264055,22.852665330659665
