,BIT_DEPTH,cost
0,113.08,3038.891043185642
1,115.12,5.456680606377384
2,116.63,6.551179901301064
3,118.65,2.1960744763382354
4,119.31,5.9367669858641205
5,121.12,5.34168539325842
6,122.81,6.66270914653444
7,125.39,8.121603681221867
8,128.68,6.642541682104486
9,131.46,-34.576930943800555
10,117.41,71.28999999999999
11,188.7,84.52611793611794
12,205.29,6.564625850340136
13,206.54,3.28936300844209
14,207.22,43.58275532169337
15,216.72,1.5715772941441026
16,217.08,6.746756756756651
17,218.67,11.554110429447924
18,221.06,57.0343791021266
19,232.61,1.9898251192367709
20,233.01,296.64249211356463
21,293.02,23.28101283880182
22,295.01,17.525641025641022
23,296.51,26.429949174078683
24,299.02,14.94756183745621
25,300.54,18.476853932584078
26,302.5,4.817475924987349
27,303.06,29.697604790419163
28,306.56,489.2705788423154
29,351.12,5051.2786734968995
30,1352.52,1.8443799058084445
31,1353.03,6.312343883661184
32,1354.8,1.7079652740099018
33,1355.26,5.432991452991519
34,1356.74,1.8387469333837272
35,1357.22,5.641663066954894
36,1358.65,1.6804046664229444
37,1359.1,6.553898674414348
38,1360.86,0.6953191489363699
39,1361.05,5.701140098255576
40,1362.66,16.274919786095655
41,1367.09,12.01033431661734
42,1369.12,45.79301886792578
43,1377.13,63.7593840790231
44,1389.03,80.71958263772991
45,1395.0,9.239984230682149
46,1397.11,171.8702112676058
47,1437.07,8.627986577181591
48,1438.5,18.389153936545526
49,1443.17,7.61732562938465
50,1445.03,6.541611088791116
51,1446.66,2.2073818395761724
52,1447.22,5.824422700587156
53,1448.7,1.244988066825452
54,1449.05,5.606202046036114
55,1450.7,22.13217391304354
56,1457.18,41.98241738823114
57,1468.68,52.24871165644148
58,1484.51,8.090827300930863
59,1485.0,35.880257966615865
60,1486.51,9.264394618833757
61,1487.03,24.79192546583851
62,1488.53,7.190158434296638
63,1489.01,22.070110497237703
64,1490.5,7.706613358419431
65,1491.01,22.66650987770461
66,1492.51,8.019224376730762
67,1493.05,22.127119113573542
68,1494.54,7.304644549763311
69,1495.02,23.373648393194156
70,1496.56,6.249859154930354
71,1497.0,22.209789658193667
72,1498.57,6.3913300492613265
73,1499.05,19.5
74,1500.55,6.278120184899845
75,1501.05,18.266020864381524
76,1502.55,5.38289198606303
77,1503.02,17.206565656565154
78,1504.57,6.044142194745206
79,1505.05,19.5
80,1506.55,4.971098459478064
81,1507.0,16.79946107784401
82,1508.53,5.119175257732154
83,1509.01,15.740506329113925
84,1510.51,5.234848484848484
85,1511.01,16.938507462687596
86,1512.65,10.236369344013237
87,1515.06,69.98021846370696
88,1530.53,2.03838900431563
89,1531.13,4.745170404892984
90,1532.62,1.7664553229141788
91,1533.17,5.268210166594959
92,1534.85,24.73964346612946
93,1542.29,15.607282792557374
94,1547.01,26.697150629037676
95,1554.53,67.43474409760745
96,1574.5,18.072464558342084
97,1579.35,4.2092307692309285
98,1580.79,1.4441350941768467
99,1581.13,7.377531734837265
100,1582.76,1.2040137542978835
101,1583.12,11.431184454040867
102,1586.57,21.420000000000414
103,1592.69,1.4228100987920929
104,1593.07,5.896760477210036
105,1594.86,6.4743619489560675
106,1596.81,1.0665168539324803
107,1597.09,5.0609580528226665
108,1598.5,13.259999999999764
109,1599.01,50.447038626608844
110,1600.53,11.401162790697674
111,1601.03,32.92506419400917
112,1602.5,9.417954815695602
113,1603.0,26.904416575789835
114,1604.55,7.387710843374078
115,1605.01,23.41522243713719
116,1606.52,6.688118811881187
117,1607.02,20.16167919799511
118,1608.51,6.251533742331288
119,1609.01,19.254723926379913
120,1610.55,6.005689655172308
121,1611.06,17.420149679258834
122,1612.55,5.7777697841727695
123,1613.04,17.329829907866866
124,1614.53,5.633901216893557
125,1615.01,17.449479239971748
126,1616.52,5.989942693409636
127,1617.03,21.717651245553085
128,1618.89,2.704173622702048
129,1619.09,487.4272930648769
130,1659.09,6.547252347193161
131,1660.78,0.7051411651288259
132,1661.01,4.984318848679305
133,1662.62,39.55311020169573
134,1675.01,5.77409859835688
135,1676.7,8.490801248699047
136,1678.76,0.9071608598962536
137,1679.0,7.122102728731663
138,1681.09,5.320990743915014
139,1682.58,19.315053003533507
140,1688.6,1.5316308303012154
141,1689.04,6.987502695708817
142,1690.69,2.350602006688421
143,1691.36,4.464476093591016
144,1692.62,1.2018317200299924
145,1693.04,4.34575569903819
146,1694.5,55.509498988641965
147,1711.15,38.287686658506374
148,1722.77,14.251164646763431
149,1727.2,5.341856333281919
150,1728.82,9.958310185185587
151,1732.89,5.576681018574927
152,1734.85,0.6913322349064375
153,1735.1,15.880467380720878
154,1740.72,40.917329192546475
155,1755.01,9.110681981335222
156,1758.27,42.0534944715869
157,1772.63,1.988222725800981
158,1773.21,4.858556652562447
159,1774.66,1.205997180009065
160,1775.02,5.570690134321656
161,1776.7,1.198739184177556
162,1777.12,19.04422764227703
163,1783.4,4.142436670687516
164,1784.67,19.428356729974976
165,1791.01,5.447662793839365
166,1792.81,1.1980400095262551
167,1793.24,3.953026724673372
168,1794.62,41.58393492243694
169,1809.0,5.779765654529419
170,1811.0,10.49845891757295
171,1814.54,7.008159962472046
172,1817.08,6.484883595019253
173,1819.22,41.66106588890378
174,1833.16,4.8290106692526535
175,1834.57,1.2105633802818123
176,1835.02,24.978637602179884
177,1844.5,8.17540342985696
178,1847.13,45.483076923076766
179,1862.69,12.192132701421446
180,1867.08,7.532217898832507
181,1868.62,2.031598789853411
182,1869.36,4.548402948403337
183,1870.96,19.262133784928224
184,1877.14,6.487895330475058
185,1878.62,1.251434251215164
186,1879.01,5.635560095814963
187,1880.82,12.715050505050614
188,1885.03,5.781171797418021
189,1887.05,11.777306590257956
190,1891.27,110.63852227453857
191,1930.63,1.709917012447371
192,1931.12,34.991518031506715
193,1942.97,44.892969121139785
194,1959.11,5.149510348309514
195,1960.89,4.374789706382201
196,1962.51,1.859682427664046
197,1963.02,4.903511686020786
198,1964.55,1.7813977064982232
199,1965.06,5.641764904008564
200,1966.66,5.167712204548539
201,1968.26,6.378762575452821
202,1970.47,7.14400138137417
203,1973.09,4.988305430788381
204,1974.73,1.3557711442785827
205,1975.24,4.993652258377802
206,1977.01,56.40105616093889
207,1995.23,5.073277347743276
208,1996.82,61.028668846333666
209,2019.0,152.7644122690033
210,2058.6,2.2485611510804997
211,2059.05,16.911100164203503
212,2064.59,2.069892673821909
213,2065.05,15.053253159396803
214,2068.76,2.328412017165264
215,2069.2,38.36813319878902
216,2077.22,4.236304773378096
217,2078.52,1.7503067484659924
218,2079.12,5.7130841375564
219,2081.0,5.056981006773971
220,2082.69,1.484251968503937
221,2083.19,4.154721299372565
222,2084.65,5.108954785672092
223,2086.5,60.650150239606646
224,2107.11,4.908063404548308
225,2108.71,2.3428936406546446
226,2109.47,3.271232945932605
227,2110.6,1.769401926001383
228,2111.21,57.26882163234924
229,2131.23,4.250164352146877
230,2132.69,55.30641841570742
231,2153.23,4.751260504201411
232,2154.83,0.7143151037211871
233,2155.03,5.597017783856692
234,2156.6,1.9194546254212015
235,2157.2,5.25083776180111
236,2158.77,1.1313662747429714
237,2159.12,4.539302587176715
238,2160.58,2.4080533999735323
239,2161.39,4.3792929292937535
240,2162.84,0.8116265912298135
241,2163.1,4.619999999999891
242,2164.64,1.8124474841240343
243,2165.28,3.577412790697623
244,2166.55,1.750836575875178
245,2167.17,67.42146341463395
246,2191.0,7.793954721599317
247,2192.92,4.722125564218625
248,2194.78,51.424786530365935
249,2213.12,9.293645705897852
250,2215.11,5.15713650511309
251,2216.71,50.362714519522925
252,2235.0,7.951323896752518
253,2236.54,2.007234726688103
254,2237.04,5.622195034184892
255,2238.56,1.7782674624938886
256,2239.08,38.647692549513465
257,2250.59,1.9676839565733093
258,2251.08,4.85386018237088
259,2252.56,5.582610229276845
260,2254.58,2.332385769096367
261,2255.43,3.161150442478073
262,2256.6,5.349886611426607
263,2258.63,1.9320309810672247
264,2259.34,3.276588845654993
265,2260.59,5.115815780857941
266,2262.53,39.73172377985387
267,2277.08,13.387431394074968
268,2278.53,5.574996379432819
269,2279.0,19.92734693877481
270,2280.56,6.239230769234149
271,2281.03,19.147058823529413
272,2282.53,6.435639039501276
273,2283.04,18.866321839083184
274,2284.55,5.509313795565918
275,2285.02,17.747758007117227
276,2286.54,5.990164835167097
277,2287.07,16.187639542703835
278,2288.53,5.520080321285141
279,2289.03,16.6006711409396
280,2290.53,22.577369826432243
281,2292.58,5.412973878100402
282,2293.07,18.369999999995798
283,2294.74,1.2258780614908842
284,2295.08,5.629955947136564
285,2296.58,1.3577685950419776
286,2297.07,30.7116856728177
287,2309.09,97.75727386791361
288,2345.15,6.521531421599051
289,2346.76,1.6555946516535138
290,2347.36,3.2348180815872905
291,2348.5,2.333128995862949
292,2349.31,3.783524211637365
293,2350.58,1.3686615678783707
294,2351.05,5.031955307262079
295,2352.73,1.2305470313537994
296,2353.14,4.184498229044602
297,2354.55,1.9175164332656185
298,2355.16,4.227931034483218
299,2356.5,1.6753568800592802
300,2357.09,4.221316353549469
301,2358.55,1.7720488847326095
302,2359.14,5.190913216109871
303,2360.8,1.2507711810679516
304,2361.1,5.898164739884932
305,2362.69,1.2955509355513937
306,2363.05,5.7704717429160635
307,2364.76,1.2706249999988444
308,2365.14,4.936763381691929
309,2366.55,1.7555456993504852
310,2367.07,5.096504941598337
311,2368.64,2.1645592705177314
312,2369.3,5.016158012105828
313,2370.78,1.4575763182225412
314,2371.22,4.614042610937657
315,2372.74,1.1455579476147857
316,2373.15,4.038594136347681
317,2374.61,1.751449321124031
318,2375.13,5.588771331056984
319,2376.7,1.235956482321157
320,2377.12,4.4703973863188855
321,2378.61,1.6379490382204978
322,2379.18,4.2997908115982035
323,2380.62,1.2351710720524545
324,2381.03,4.867790368270965
325,2382.64,1.2727341635086127
326,2383.06,5.341188421931589
327,2384.79,0.73066115702492
328,2385.0,5.731284046692856
329,2386.67,1.1726966292132246
330,2387.0,5.15788491938101
331,2388.53,2.1168614196036835
332,2389.15,5.515085926613544
333,2390.81,0.6815115822536856
334,2391.04,4.411186315530914
335,2392.59,2.379361921983823
336,2393.4,3.869446772841576
337,2394.65,1.3080288592426275
338,2395.08,5.1975879396993925
339,2396.76,1.3499999999994543
340,2397.21,4.368504983388928
341,2398.63,2.082905946858092
342,2399.3,4.184944772668414
343,2400.73,1.2769297998303897
344,2401.14,4.440023520188161
345,2402.64,1.7637006682641432
346,2403.25,3.770272373541445
347,2404.53,1.7578541103818255
348,2405.13,4.907112087288306
349,2406.7,2.4529245018241923
350,2407.49,3.0340234948609632
351,2408.56,2.393292402149365
352,2409.38,3.4766522366516246
353,2410.62,2.2135940629054387
354,2411.42,3.708707926166392
355,2412.74,1.1175776397518737
356,2413.12,5.472056849585904
357,2414.96,0.5483553376086071
358,2415.15,4.37968652037623
359,2416.63,2.3561949605495993
360,2417.44,3.418718381112702
361,2418.54,2.0375833454647276
362,2419.18,4.357787147427677
363,2420.55,2.5194220665497964
364,2421.34,3.60966915387819
365,2422.5,13.257534747622822
366,2426.65,2.260823030079008
367,2427.25,5.641475054229867
368,2428.77,1.137504078303175
369,2429.1,5.311611278953437
370,2430.61,1.3635649153273142
371,2431.04,4.418075461811261
372,2432.53,2.960816326529383
373,2433.45,3.096251786410826
374,2434.5,1.4654994850669414
375,2435.0,5.176591173806776
376,2436.76,1.419334637963484
377,2437.24,4.2214176339837515
378,2438.72,1.3482595262616928
379,2439.18,4.49320889797995
380,2440.72,2.5141671904465723
381,2441.16,5.204968527067624
382,2442.84,0.25949152542283727
383,2442.93,4.936735190695488
384,2444.56,1.7746718465869724
385,2445.07,1.6949180327861302
386,2445.56,5.028073394495959
387,2446.9,7.448255033557206
388,2448.61,2.7757765667559706
389,2449.24,5.478235294118938
390,2450.63,1.785840130505931
391,2451.07,5.955806451612976
392,2452.55,1.8513513513513513
393,2453.05,5.198100446771491
394,2454.62,1.6665524060646644
395,2455.1,5.518642783327461
396,2456.64,1.9200710563719394
397,2457.21,5.2354087346023395
398,2458.75,1.7664553229141788
399,2459.3,4.471965341768781
400,2460.76,1.1520164986248151
401,2461.11,4.728564968344297
402,2462.56,1.760078910723239
403,2463.09,4.762014618546685
404,2464.54,2.3719723183391004
405,2465.29,4.801601718773913
406,2466.78,1.2520689655168327
407,2467.17,4.314126074498224
408,2468.54,1.9183915622937107
409,2469.14,5.585053003533456
410,2470.93,0.5844650499287745
411,2471.14,3.977682408644796
412,2472.55,2.5660273972593295
413,2473.39,3.9892908557715763
414,2474.72,1.0436254399815552
415,2475.09,5.578463744366841
416,2476.92,0.5642102707291214
417,2477.12,4.203037144938759
418,2478.61,1.2077688416132695
419,2479.02,4.706947935368415
420,2480.63,1.1495423248281957
421,2481.01,4.910425531913983
422,2482.58,1.8447875354112946
423,2483.15,4.861604938270659
424,2484.74,1.3569422962524658
425,2485.16,5.192832665469284
426,2486.85,6.891949713277751
427,2489.0,6.759510797708947
428,2490.57,2.0955476135568665
429,2491.04,7.303422053231524
430,2492.64,1.9165100671143316
431,2493.08,6.558852988692574
432,2494.55,2.1245865692097654
433,2495.03,6.960249716231235
434,2496.61,2.1623549488044977
435,2497.1,6.306108206411832
436,2498.53,9.628747152618866
437,2500.71,2.1953191489364423
438,2501.15,6.843182897862775
439,2502.53,2.406336154776216
440,2503.05,7.912192066804237
441,2504.66,1.8149065242283773
442,2505.13,4.181589568863414
443,2506.54,2.524648602878746
444,2507.35,3.4472433080306364
445,2508.5,1.8367502674428378
446,2509.16,3.9997515527954053
447,2510.52,1.5481629714951324
448,2511.01,4.669499868385552
449,2512.58,1.8345462276761162
450,2513.23,5.5587188612099645
451,2515.23,4.102373540855806
452,2516.56,1.3235602433035072
453,2517.01,4.987668539325692
454,2518.82,5.500497271072842
455,2520.5,2.2660621288261273
456,2521.19,5.375138148328239
457,2522.76,1.1144146767615044
458,2523.11,4.549546247817979
459,2524.54,2.2649474818206303
460,2525.29,3.8777540251663485
461,2526.57,1.2486253369273785
462,2527.01,5.281633554082955
463,2528.87,0.44395646001032324
464,2529.03,21.297750994617417
465,2536.76,2.2698011928417836
466,2537.33,4.160656749930286
467,2538.67,2.2998926738219274
468,2539.36,4.260981114693569
469,2540.65,2.683843306600683
470,2541.46,4.309914163089786
471,2542.83,1.1346377851101415
472,2543.19,4.368617472434551
473,2544.59,1.7351863354028174
474,2545.18,4.589861303745527
475,2546.67,1.917890222984963
476,2547.28,5.10197698314721
477,2548.95,0.6847851305036133
478,2549.18,3.683896848137993
479,2550.5,2.6366170299170917
480,2551.37,4.1566337111165215
481,2552.85,0.5362005277053525
482,2553.03,4.463946388681899
483,2554.59,1.7788424968993222
484,2555.17,5.068704784131152
485,2556.76,1.2653546592485077
486,2557.17,4.322012507106653
487,2558.55,2.5707689300140135
488,2559.42,4.264440993788285
489,2560.87,0.592025026706283
490,2561.05,4.895973788478404
491,2562.54,1.587998207350632
492,2563.03,5.3425019844417285
493,2564.61,2.072537313432576
494,2565.19,4.728430928502476
495,2566.57,3.3712345678997995
496,2567.04,12.164257703081086
497,2568.56,3.450000000002092
498,2569.01,12.37199281867075
499,2570.61,2.9191799265595515
500,2571.02,11.698571428571288
501,2572.54,3.389936305732752
502,2573.0,11.492170639899095
503,2574.58,2.836570771001642
504,2575.0,10.834320892650405
505,2576.6,2.8539877300619985
506,2577.0,10.645242412297739
507,2578.54,3.3297982708932548
508,2579.06,10.253692946057848
509,2580.6,2.612066805845964
510,2581.02,10.337258687259258
511,2582.67,2.467147564995216
512,2583.05,5.336601426437991
513,2584.58,2.450337078653013
514,2585.05,7.699559669751796
515,2586.67,1.3092284866465955
516,2587.0,6.417727593508206
517,2588.76,1.247282287215428
518,2589.12,3.2564120256285776
519,2590.06,2.373794524581271
520,2590.8,6.119212598424219
521,2592.62,1.2223230382743275
522,2593.0,5.050453460620348
523,2594.56,1.9184299009311245
524,2595.15,4.931572456320541
525,2596.69,1.181522152361108
526,2597.06,5.298827952233817
527,2598.71,2.1651995438998295
528,2599.4,3.6105823811278515
529,2600.67,0.7878040117011311
530,2600.925,5.235378510378235
531,2602.65,1.391948088193688
532,2603.1,5.230058147048011
533,2604.88,0.5043632868808483
534,2605.06,4.615137175033199
535,2606.71,1.1265681763141335
536,2607.11,4.276435606532225
537,2608.6,6.786034712951256
538,2610.86,0.6010181713298524
539,2611.05,4.875337533753375
540,2612.55,2.569708141320035
541,2613.43,3.553290426388648
542,2614.61,1.870648030495269
543,2615.21,5.299356270809595
544,2616.93,5.221774370208217
545,2618.64,1.3807777164928394
546,2619.09,4.617365743357886
547,2620.57,2.0210185185186784
548,2621.26,4.140659630606481
549,2622.65,2.0321492007099513
550,2623.35,3.2274262579533697
551,2624.53,1.970653409089748
552,2625.24,3.6350445307151698
553,2626.58,1.4416195856873824
554,2627.08,4.97213717986517
555,2628.63,7.316262391383957
556,2631.21,4.490844865258095
557,2632.62,1.756314319904486
558,2633.06,6.548673026886229
559,2634.6,2.2081009987341123
560,2635.31,5.057240473061887
561,2636.77,1.0721153243502821
562,2637.09,5.766397573495161
563,2638.82,1.301356909175459
564,2639.21,5.074683663833012
565,2640.72,0.9995073424920636
566,2641.08,4.3908133971291345
567,2642.6,1.2996282366565568
568,2643.01,4.879120171673491
569,2644.63,2.590961810466534
570,2645.46,3.2948405877465534
571,2646.53,1.681110837133874
572,2647.12,4.7926336024615495
573,2648.76,2.0423731997484342
574,2649.37,3.802704918032961
575,2650.56,1.7419333051918944
576,2651.12,5.086476462196519
577,2652.74,1.2010356301133056
578,2653.13,4.475954088952884
579,2654.55,1.8043356081892088
580,2655.15,4.657008559000982
581,2656.65,1.2857395925600799
582,2657.05,4.623368481872136
583,2658.51,2.2848796147665444
584,2659.27,4.13078618559573
585,2660.6,1.3485187914519652
586,2661.02,4.777017186134576
587,2662.52,1.7870670265413018
588,2663.07,4.696936067551444
589,2664.51,1.7079239813174425
590,2665.01,5.6136472148529695
591,2666.62,1.8857181449795024
592,2667.2,4.880849056603715
593,2668.72,1.0606273062742906
594,2669.05,4.838774298857397
595,2670.55,1.9184299009296457
596,2671.14,4.4830129060980735
597,2672.53,2.506893654013214
598,2673.32,4.720235583176068
599,2674.81,0.5864390040341092
600,2675.0,4.264636253205121
601,2676.41,2.765906902086896
602,2677.33,4.1182882055988985
603,2678.58,1.9510433662512665
604,2679.2,4.399821882952619
605,2680.61,1.2951215446592048
606,2681.03,4.339835082458091
607,2682.54,1.7764343163543976
608,2683.11,4.554845173041477
609,2684.5,2.221404754554116
610,2685.17,4.874941022279969
611,2686.58,2.4587653931165754
612,2687.31,4.589494888754787
613,2688.72,1.1680565026795064
614,2689.06,4.951851553695989
615,2690.51,1.7428146453080873
616,2691.04,5.832208225831586
617,2692.82,0.6916002140755164
618,2693.05,4.3324265547494605
619,2694.54,2.1584751413243097
620,2695.22,5.5081582804116085
621,2696.82,0.7151220799782331
622,2697.06,4.703471252014881
623,2698.62,1.9050628713551987
624,2699.24,4.284040404040743
625,2700.62,1.6234670947029404
626,2701.16,4.423063063063477
627,2702.52,2.8503524229070814
628,2703.41,3.4279314958532727
629,2704.55,1.8428828567278863
630,2705.13,4.654603174603232
631,2706.61,1.4446949602116175
632,2707.06,4.625182481752695
633,2708.51,1.8462162162152034
634,2709.14,5.057544207102508
635,2710.76,1.2440005626659105
636,2711.16,4.27238407878567
637,2712.56,2.4337786100706325
638,2713.35,3.655835694051219
639,2714.52,1.9154450480564953
640,2715.14,5.063947368421452
641,2716.75,1.6797214014350916
642,2717.29,5.090909090908802
643,2718.89,1.1007507507504648
644,2719.24,4.5390511055793805
645,2720.66,1.9498266897749696
646,2721.31,4.2032055749132855
647,2722.67,1.8451217675115585
648,2723.31,2.5229562143049185
649,2724.14,2.2886490509867503
650,2724.94,4.591053233388177
651,2726.52,1.6184368398816502
652,2727.04,5.471245745404908
653,2728.58,2.970666525154047
654,2729.29,4.637158081705326
655,2730.73,1.1752173913047637
656,2731.09,4.767171903881881
657,2732.53,1.8533025404155237
658,2733.09,5.415580286168214
659,2734.69,1.7435551824140607
660,2735.22,4.705013469022136
661,2736.67,1.1810430287369238
662,2737.03,6.162899444786084
663,2738.89,0.5891037669795838
664,2739.08,4.547873854153137
665,2740.57,1.5936407432896897
666,2741.09,5.1596426545649425
667,2742.74,1.1505489478511501
668,2743.09,4.72955367913089
669,2744.54,1.6061804995979692
670,2745.01,5.719996654398252
671,2746.64,2.4657948283176916
672,2747.23,5.418893752487574
673,2748.59,1.3540252038549419
674,2749.01,5.70797842956614
675,2750.93,1.263525459161879
676,2751.32,3.78918296892923
677,2752.52,1.6663636363642655
678,2753.05,5.269645400817234
679,2754.66,1.6535161107976846
680,2755.19,4.9828844600056605
681,2756.84,1.0024629805730707
682,2757.17,4.624816800714394
683,2758.6,1.7878300708036075
684,2759.18,4.295492957746819
685,2760.56,1.8767768477795426
686,2761.16,4.920456492835626
687,2762.69,1.2969339486583227
688,2763.1,4.731906116643643
689,2764.61,1.6341687979538049
690,2765.17,4.821778645107164
691,2766.73,2.020443429185922
692,2767.4,4.22829787234062
693,2768.59,2.111400087963176
694,2769.25,3.9571870005332554
695,2770.57,2.233393975544465
696,2771.26,5.224531020287042
697,2772.89,0.536537300560816
698,2773.06,4.905293059512026
699,2774.57,1.804180602005794
700,2775.12,5.140179122915983
701,2776.67,1.628748171979356
702,2777.18,4.920957446809155
703,2778.71,1.1549359634922385
704,2779.07,4.893028737487331
705,2780.5,1.8364493996575542
706,2781.05,5.089243176177813
707,2782.58,2.4434279918863515
708,2783.35,4.3776303460787584
709,2784.69,1.0439766334917646
710,2785.02,5.104209624669721
711,2786.55,2.094423963132749
712,2787.02,7.150062111800992
713,2788.58,1.6017672944906052
714,2789.02,6.1949277456650105
715,2790.69,1.0491631556005243
716,2791.02,5.842571261511242
717,2792.85,0.5472969664000142
718,2793.03,4.606507367582528
719,2794.57,1.9127187864641206
720,2795.17,4.66696008747872
721,2796.7,1.4068017961837898
722,2797.19,4.452891926527354
723,2798.61,2.709717804001209
724,2799.37,4.475709581824042
725,2800.66,1.6337078044827418
726,2801.2,4.613636363637232
727,2802.65,1.889984738649635
728,2803.3,3.960258114977577
729,2804.64,1.1100204918035974
730,2805.02,4.995581888487644
731,2806.76,1.180823885956946
732,2807.2,4.048040652328155
733,2808.66,1.194036958067617
734,2809.09,3.9396525096520585
735,2810.52,2.0693385715961066
736,2811.27,4.444850458987618
737,2812.65,5.730049492055384
738,2814.59,2.857274174292659
739,2815.0,8.43557979334176
740,2816.59,1.890153616384984
741,2817.04,5.913935326418695
742,2818.5,1.7696739667387784
743,2819.01,5.462601734489468
744,2820.57,1.8764080865066342
745,2821.13,7.262138987483102
746,2823.04,6.350893125940601
747,2824.85,0.5464393268381436
748,2825.02,5.270017865118709
749,2826.65,1.4653130016045786
750,2827.08,5.378700696055322
751,2828.7,1.1723993580322802
752,2829.09,4.761542553190563
753,2830.68,1.245546786922493
754,2831.08,5.120736622654173
755,2832.74,1.187721397799224
756,2833.09,5.077588413607468
757,2834.53,1.9300969109620412
758,2835.12,5.294948805460922
759,2836.81,1.658613654198112
760,2837.37,3.4573871798356586
761,2838.51,2.1967695443283226
762,2839.2,4.342671897859575
763,2840.65,1.7276783648274787
764,2841.24,5.069925383446458
765,2842.89,0.6894835680759155
766,2843.11,4.418840349483771
767,2844.59,2.3807661786830376
768,2845.37,5.4729040735871335
769,2846.95,0.5907088530584543
770,2847.13,5.189456685782268
771,2848.72,1.7827223719680947
772,2849.31,3.340476729382319
773,2850.38,2.7676371308012917
774,2851.27,4.488660826032383
775,2852.83,0.2752428535297031
776,2852.925,5.032766059443647
777,2854.65,1.9277263581485098
778,2855.29,3.6770381949165163
779,2856.5,1.816673773986979
780,2857.08,4.752291169451508
781,2858.67,1.8868629639970447
782,2859.28,4.994062760344012
783,2860.9,0.49167495854018295
784,2861.06,5.349751708746046
785,2862.79,1.274703427343019
786,2863.23,3.858194696694208
787,2864.6,1.6266969353007377
788,2865.12,5.59054459352906
789,2866.78,1.6771698364142533
790,2867.34,3.915409705648206
791,2868.65,1.21931701539633
792,2869.06,3.596294728741877
793,2870.29,2.8354969396673297
794,2871.18,4.214615384616595
795,2872.51,2.570990734140458
796,2873.21,6.258433207247318
797,2874.78,1.0399724011036857
798,2875.13,4.479189408268091
799,2876.61,2.075498999141664
800,2877.27,3.677807342971086
801,2878.53,1.7955402954123558
802,2879.14,5.075846363018576
803,2880.81,0.5656425464612143
804,2881.0,4.974825362708495
805,2882.65,1.1583695206885753
806,2883.03,5.504210526314909
807,2884.85,0.5602260327359365
808,2885.04,4.899153630164789
809,2886.67,1.761803735711395
810,2887.24,4.974562965126038
811,2888.8,1.1376497695842187
812,2889.16,5.032063492063374
813,2890.7,2.036363636364678
814,2891.34,3.6475503626109074
815,2892.55,1.7253396524484408
816,2893.13,4.411573033708091
817,2894.55,2.3891321688893314
818,2895.33,4.653481953291609
819,2896.82,0.8751098162258488
820,2897.09,5.55970705725591
821,2898.68,2.2352872281098657
822,2899.27,5.298970087088643
823,2900.65,1.5023854069217502
824,2901.1,4.782648461205719
825,2902.61,1.9280781758955776
826,2903.17,5.046907545164599
827,2904.71,1.0790412782959875
828,2905.07,4.72303920150372
829,2906.56,1.7629213804953172
830,2907.12,4.513879003559012
831,2908.52,2.3023954191182625
832,2909.2,4.557633069083981
833,2910.53,2.3928463476064765
834,2911.21,4.936047728015127
835,2912.64,1.5477787091366304
836,2913.14,4.779183222958816
837,2914.63,1.7063835454268215
838,2915.16,3.1070062771618483
839,2916.07,6.730437956203335
840,2918.18,2.1042589703591785
841,2918.81,6.545138539043269
842,2920.67,2.1206122448984823
843,2921.26,4.3420680453628115
844,2922.5,1.8717209045784382
845,2923.11,4.141514360313584
846,2924.51,2.5602160760586
847,2925.32,3.6203147953824075
848,2926.54,2.0748136782116013
849,2927.19,4.578260501831911
850,2928.66,1.8654609929075674
851,2929.24,4.329389400922752
852,2930.61,1.5547039797496836
853,2931.11,4.788098682509963
854,2932.74,0.9012024048101657
855,2933.04,5.425541022591624
856,2934.72,1.266344410876581
857,2935.08,4.930556889103185
858,2936.53,1.8951927437639347
859,2937.11,4.763243243243187
860,2938.63,5.546649039081272
861,2940.52,1.6091657866947173
862,2941.06,5.521417322835024
863,2942.92,0.6654042380882057
864,2943.14,4.114065847923624
865,2944.53,2.5375846934574646
866,2945.36,3.988463611858959
867,2946.68,1.0612442396323276
868,2947.05,5.275856279382136
869,2948.8,1.0977937287485293
870,2949.18,3.900509554140551
871,2950.52,6.459203688180903
872,2952.83,0.8955965474034796
873,2953.12,4.548421943308532
874,2954.58,2.6856150462617223
875,2955.4,4.302077922078263
876,2956.78,1.157904599658943
877,2957.15,4.295883037532443
878,2958.5,1.9270421704509022
879,2959.1,6.0367078189302354
880,2960.79,1.2454254677125145
881,2961.1,5.218181818182157
882,2962.5,1.8037595129383672
883,2963.01,5.243137581101314
884,2964.51,1.9220272742381952
885,2965.06,5.506441351888414
886,2966.64,1.30456806874747
887,2967.04,5.087977496874847
888,2968.69,1.130787640875913
889,2969.08,4.291108764519698
890,2970.52,1.6581500317871956
891,2971.01,5.583383768913147
892,2972.57,1.6844161927066545
893,2973.05,5.2802849740931395
894,2974.59,1.7882926829267667
895,2975.11,5.392335913832829
896,2976.64,1.699718787057493
897,2977.12,5.422469470828389
898,2978.65,1.6693039983079743
899,2979.05,6.737852363478077
900,2980.64,1.9089517026488012
901,2981.08,6.6326599171662615
902,2982.57,2.2887046632122807
903,2983.11,6.244794283238647
904,2984.58,2.1004190309903708
905,2985.24,5.061479205374132
906,2986.85,0.6263912756114767
907,2987.06,4.77064157399481
908,2988.58,2.5416629711750494
909,2989.37,4.39388992940602
910,2990.76,1.169403154983487
911,2991.1,5.278774910160768
912,2992.63,6.59519536903016
913,2994.71,1.30210585270255
914,2995.13,4.38537887711038
915,2996.61,2.088705197724626
916,2997.31,3.639402985074575
917,2998.58,1.2652063015755508
918,2999.02,5.129633740289087
919,3000.82,0.5726701570675421
920,3001.0,5.319205440229234
921,3002.69,1.2897707278054273
922,3003.12,4.6116276007379655
923,3004.67,1.285478158205723
924,3005.07,4.437971172151321
925,3006.53,1.8403348124233767
926,3007.14,4.502625698324938
927,3008.57,2.366298600311163
928,3009.28,4.756978865743664
929,3010.73,1.2658796226975955
930,3011.12,4.891481481482554
931,3012.53,1.9969929937511137
932,3013.05,4.697729154346657
933,3014.51,1.7705404031848213
934,3015.01,5.941534008682731
935,3016.61,2.1742857142858867
936,3017.07,6.627319884726476
937,3018.51,2.8836843440746707
938,3019.11,7.731026749525868
939,3020.64,1.9806739679870895
940,3021.02,8.196427525622157
941,3022.54,2.6690018714924006
942,3023.01,9.786454806768683
943,3024.7,2.3696561536636596
944,3025.22,6.046096471640548
945,3026.61,1.9036964838759618
946,3027.12,5.653272297697548
947,3028.55,2.4792666875580274
948,3029.29,4.093696275072206
949,3030.59,1.83573033707897
950,3031.01,7.416573982123749
951,3032.58,2.164186046512003
952,3033.0,8.168144499178517
953,3034.6,2.0842703257259556
954,3035.03,7.286587605201614
955,3036.54,2.3809354120269144
956,3037.0,7.978304781386274
957,3038.65,2.51450443190975
958,3039.15,6.394541940471093
959,3040.79,1.144163608892649
960,3041.06,6.090161463939951
961,3042.5,2.0789479719072386
962,3043.16,4.9406391270460475
963,3044.64,1.3593048128354943
964,3045.01,5.5794395622613315
965,3046.61,2.002835249041096
966,3047.2,4.4019969856831755
967,3048.55,1.501566401816175
968,3049.03,5.639213273094162
969,3050.72,1.3551098376316357
970,3051.12,4.654575389948814
971,3052.59,1.801501625775763
972,3053.15,4.846149068322427
973,3054.58,1.9400125058618796
974,3055.16,4.75192336035378
975,3056.64,1.2986071589039945
976,3057.04,6.026787196205932
977,3058.91,0.4299077207016836
978,3059.04,4.847470997679935
979,3060.5,1.8258227848099486
980,3061.06,5.083181607060581
981,3062.59,3.594677419353172
982,3063.1,9.520708980419629
983,3064.67,1.7938943894384778
984,3065.02,8.523409090908515
985,3066.64,1.9384397163119889
986,3067.16,4.771411315957817
987,3068.57,1.4523773910543363
988,3069.03,4.808003574865051
989,3070.6,2.2140591204046123
990,3071.3,4.914145573948925
991,3072.91,0.5878779840850494
992,3073.1,4.316745749308839
993,3074.55,2.338073089700269
994,3075.31,0.6198360655738779
995,3075.52,5.40771061399303
996,3077.12,5.192583539202308
997,3078.88,0.6046602168079359
998,3079.1,3.752452098793602
999,3080.51,2.7103342652230804
1000,3081.47,3.083918197984942
1001,3082.58,2.149344845099722
1002,3083.32,3.5377419354830915
1003,3084.64,1.3071428571436496
1004,3085.09,4.179726027397419
1005,3086.53,1.300980615735511
1006,3087.01,4.448823928530061
1007,3088.66,1.2714783017759443
1008,3089.12,3.9065470523620816
1009,3090.5,1.4891024249010327
1010,3091.03,4.377134922471401
1011,3092.63,1.9856018684873458
1012,3093.34,3.2786964661831597
1013,3094.53,1.9155591572118198
1014,3095.23,3.8452520018837735
1015,3096.62,1.4065193952894806
1016,3097.13,4.795724005323954
1017,3098.62,1.2899616858241254
1018,3099.0,6.139586910740197
1019,3100.79,0.6232773550250357
1020,3101.0,4.493037974684071
1021,3102.55,2.570140845069413
1022,3103.43,3.0856060051267393
1023,3104.52,1.8868387669671547
1024,3105.17,2.570104220948088
1025,3106.04,2.696790431099085
1026,3106.98,4.817982708933157
1027,3108.7,1.1699159767709304
1028,3109.11,4.190451527223571
1029,3110.08,1.9361667059108087
1030,3110.78,4.8276848952054126
1031,3112.5,2.5116806722687386
1032,3113.31,3.968481757552412
1033,3114.65,1.2919266939957619
1034,3115.11,5.022992173389422
1035,3116.9,0.6521634363535189
1036,3117.12,4.970198019802655
1037,3118.86,0.5287020534671674
1038,3119.04,4.379738717340427
1039,3120.51,2.8415509103157155
1040,3121.45,3.6970607720728226
1041,3122.72,1.5195758564437194
1042,3123.22,4.3922335025390336
1043,3124.63,2.173917525773307
1044,3125.34,3.650357365987703
1045,3126.61,1.2630104610611232
1046,3127.04,5.098391502276808
1047,3128.8,0.6868164329148526
1048,3129.04,5.0416662594679496
1049,3130.82,0.6756752278369994
1050,3131.04,4.656735244953493
1051,3132.63,1.4714428719359638
1052,3133.04,6.193026096612512
1053,3134.68,2.0964786395695407
1054,3135.19,6.5951070403873375
1055,3136.72,1.7170873786423808
1056,3137.09,6.534712041884069
1057,3138.52,2.2929055224173442
1058,3139.11,5.538265682656072
1059,3140.58,1.7985557986874012
1060,3141.0,6.013877510440321
1061,3142.51,2.9422134297971017
1062,3143.18,6.473068868304982
1063,3144.79,1.2393998651377935
1064,3145.2,4.36724151385101
1065,3146.68,1.8120381110195023
1066,3147.27,3.905583840619756
1067,3148.54,1.8425581701061564
1068,3149.16,4.128274030802238
1069,3150.54,2.6138983528091253
1070,3151.38,4.30810395747095
1071,3152.72,1.327932194268966
1072,3153.16,4.82078918117837
1073,3154.85,0.5871467286109443
1074,3155.05,4.390713822192738
1075,3156.54,2.058504561682035
1076,3157.23,4.3846835443033445
1077,3158.64,1.7500652672429664
1078,3159.12,6.055925520262463
1079,3160.74,2.0002800086835237
1080,3161.21,6.53436109899586
1081,3162.74,1.8866395663969406
1082,3163.17,6.758237906052816
1083,3164.67,2.7271649360064685
1084,3165.26,5.215733222866536
1085,3166.53,2.33154280338539
1086,3167.14,5.289581179825543
1087,3168.58,1.8839590854402504
1088,3169.05,7.032636273538084
1089,3170.82,0.6921141649050614
1090,3171.01,6.024078607136114
1091,3172.69,1.0791035395300779
1092,3173.0,5.480766052677598
1093,3174.53,1.7865249603096647
1094,3175.02,5.356289443251153
1095,3176.56,1.4406747773736361
1096,3177.06,4.429285547513775
1097,3178.67,1.9408907981002972
1098,3179.39,3.1177931991681405
1099,3180.53,5.853935702623905
1100,3182.56,1.5428068043749008
1101,3183.07,4.065135135134669
1102,3184.5,1.857557146155175
1103,3185.18,4.388478182037801
1104,3186.74,0.8128596802847727
1105,3187.02,4.437487340245757
1106,3188.6,1.2328379387611035
1107,3189.03,4.4757885368449415
1108,3190.64,1.8999799599207299
1109,3191.3,3.944220983764422
1110,3192.7,1.226844285879441
1111,3193.15,5.04504430005826
1112,3194.97,0.6733877393651735
1113,3195.2,3.841890220333605
1114,3196.51,2.3849595257087888
1115,3197.39,3.7882428590767563
1116,3198.64,1.2484458077719027
1117,3199.05,2.778798767966614
1118,3200.0,2.5629158375273495
1119,3200.93,5.016672858138962
1120,3202.76,0.7244515898528603
1121,3203.02,6.168952834270303
1122,3204.97,0.9010015251663893
1123,3205.28,3.918599217174308
1124,3206.69,1.2001492537308864
1125,3207.12,4.034735883425229
1126,3208.55,1.9939250289831603
1127,3209.23,3.949930347063361
1128,3210.64,1.352510671323351
1129,3211.1,4.551176470588595
1130,3212.71,1.3851406649610198
1131,3213.2,4.3621839940164016
1132,3214.72,1.6740805785128776
1133,3215.29,4.208857364943164
1134,3216.72,1.2539247497412107
1135,3217.18,4.331491557223716
1136,3218.75,1.3017713797731907
1137,3219.21,3.9154302893652675
1138,3220.57,1.4248723897911335
1139,3221.09,4.131062813470316
1140,3222.57,2.066653650917073
1141,3223.27,4.118593690612146
1142,3224.69,1.1809614687766268
1143,3225.11,4.855752830643269
1144,3226.84,0.4801707577370233
1145,3227.0,4.600454733360893
1146,3228.5,1.6445674740483853
1147,3229.02,4.535243755844117
1148,3230.53,2.6999999999989086
1149,3231.43,3.232977667494109
1150,3232.56,1.4472657032480756
1151,3233.02,5.708727128082302
1152,3234.93,0.6645635470462801
1153,3235.16,4.044445539674924
1154,3236.58,1.2445836888944612
1155,3237.02,4.486580158074489
1156,3238.64,2.1807516215185045
1157,3239.39,3.115707591377995
1158,3240.52,2.08670920579859
1159,3241.25,4.468561572955845
1160,3242.89,0.7734790271418992
1161,3243.17,4.561422185625473
1162,3244.82,1.0503516405964808
1163,3245.2,4.850871123193662
1164,3246.9,0.6891373239430352
1165,3247.16,3.818918797162038
1166,3248.58,1.1881296758106212
1167,3249.02,4.448870779976418
1168,3250.64,1.93022847100251
1169,3251.34,2.7862523779328896
1170,3252.3,2.294016933207701
1171,3253.13,4.1053504442252295
1172,3254.57,5.724971098265794
1173,3256.61,2.2555959137336563
1174,3257.39,4.028955931472806
1175,3258.93,0.7695682743307735
1176,3259.2,4.933727359389845
1177,3260.97,0.697724094088418
1178,3261.21,4.260842455972637
1179,3262.74,0.7630959752328388
1180,3263.0,4.152989034311991
1181,3264.5,1.9667415163360975
1182,3265.18,4.469984779299743
1183,3266.72,1.1989672867231622
1184,3267.13,4.284801010739155
1185,3268.61,1.7516094822198958
1186,3269.22,4.994248878924162
1187,3270.83,0.5775968992249721
1188,3271.02,5.849287842246786
1189,3272.89,0.5206754530480917
1190,3273.04,4.990336071695177
1191,3274.58,1.4393670886082894
1192,3275.07,4.5571217348444915
1193,3276.67,1.796666666666978
1194,3277.3,3.6803710937492276
1195,3278.6,1.2759721342623496
1196,3279.04,5.575088908788113
1197,3280.95,0.6843895815338183
1198,3281.19,4.268010021473878
1199,3282.72,1.3053810340603826
1200,3283.18,4.093669585078933
1201,3284.59,1.3106414397785453
1202,3285.07,4.536498225865397
1203,3286.67,2.198041543026654
1204,3287.44,3.24217707701663
1205,3288.59,2.1301036269429545
1206,3289.36,3.7755835240271143
1207,3290.75,1.28748608534268
1208,3291.22,2.3904306560686894
1209,3292.08,2.436224084694127
1210,3292.84,5.12408225742058
1211,3294.55,2.378893045399086
1212,3295.22,4.316516619649157
1213,3296.74,0.6834067962224823
1214,3297.0,6.1208921716878475
1215,3299.23,7.501878009630607
1216,3300.52,1.2955027577428935
1217,3301.02,4.766706955280121
1218,3302.82,0.5582089552233729
1219,3303.02,4.510448435826983
1220,3304.64,1.207108433735757
1221,3305.07,4.454424357754267
1222,3306.67,1.9899905926617234
1223,3307.39,3.5080160955987667
1224,3308.63,1.7911809766997906
1225,3309.32,4.150516059184461
1226,3310.8,1.3108331410108964
1227,3311.28,3.5714036109485807
1228,3312.58,1.9149761829158232
1229,3313.32,3.4563974433462428
1230,3314.58,1.8890102955829597
1231,3315.29,3.5483569699071036
1232,3316.59,1.845757705023023
1233,3317.3,3.5694204264341085
1234,3318.59,1.7391527364319874
1235,3319.23,3.919054286698186
1236,3320.67,1.3204146424126986
1237,3321.16,4.122472031758202
1238,3322.63,1.1742599726602019
1239,3323.04,4.142504153810295
1240,3324.53,1.349875518672152
1241,3325.05,2.6587268232379797
1242,3326.04,1.9623518344309567
1243,3326.75,5.091806167401074
1244,3328.67,1.2041542202155018
1245,3329.11,2.600190745319826
1246,3330.05,2.015740851829074
1247,3330.77,4.92996191382999
1248,3332.54,1.8933374859843837
1249,3333.2,4.994782813235856
1250,3334.69,1.7833809736483175
1251,3335.1,6.36246566383358
1252,3336.59,1.9278268710552433
1253,3337.03,7.1526001313181276
1254,3338.7,2.1766445733231086
1255,3339.23,5.586387377584098
1256,3340.54,2.1359105034181973
1257,3341.06,6.995390480115541
1258,3342.77,1.2123913787210117
1259,3343.11,5.154826203207854
1260,3344.58,1.886133567663031
1261,3345.17,5.2734087940787715
1262,3346.83,0.604094827587031
1263,3347.03,4.591534420045749
1264,3348.55,2.0621115065242455
1265,3349.07,6.296451612902303
1266,3350.56,3.2380575539566165
1267,3351.37,4.313906195309963
1268,3352.56,2.061647429171039
1269,3353.31,3.3450248981445942
1270,3354.55,1.4887801547557475
1271,3355.1,3.9752475247524752
1272,3356.6,2.0232552083332855
1273,3357.37,3.464714038128679
1274,3358.69,0.8320283975657395
1275,3359.02,3.3035704267685926
1276,3360.34,6.42608695652149
1277,3362.69,1.3775008775008775
1278,3363.19,4.054543889844501
1279,3364.68,1.3707767328456986
1280,3365.18,4.883568522608941
1281,3366.96,0.4279767753457474
1282,3367.12,4.8863821183875
1283,3368.94,0.6532705774302404
1284,3369.18,4.858348134991119
1285,3370.93,0.869566787003457
1286,3371.24,3.6740699630012634
1287,3372.61,1.6628132550905814
1288,3373.22,4.687154471545352
1289,3374.96,0.5770824949698645
1290,3375.19,4.45052318668243
1291,3376.98,0.5618272218764313
1292,3377.2,3.4514376860920164
1293,3378.53,1.3372058823523212
1294,3379.04,4.685030376671038
1295,3380.9,0.39459180345713674
1296,3381.05,3.9644332493701837
1297,3382.59,1.4011568007229513
1298,3383.11,4.067050990580642
1299,3384.66,1.327133091220393
1300,3385.17,3.994023967202072
1301,3386.72,1.4209135399684745
1302,3387.26,3.3378304943038244
1303,3388.56,1.8638230231857733
1304,3389.3,3.4020159151186866
1305,3390.58,2.161037941561705
1306,3391.4,3.157038242473556
1307,3392.65,1.8917576564581529
1308,3393.36,3.5191441549120817
1309,3394.62,4.533609239654676
1310,3395.4,4.999174001353538
1311,3396.54,5.412504842491267
1312,3398.68,1.9173212379937483
1313,3399.37,3.4548130507270223
1314,3400.61,2.0683897624233207
1315,3401.37,3.483628840267445
1316,3402.66,1.9982180911364353
1317,3403.4,3.4068219944076015
1318,3404.64,1.9800849067149664
1319,3405.38,3.358273381294455
1320,3406.58,2.1748497854082833
1321,3407.36,3.1683548189073054
1322,3408.61,1.9379426365141132
1323,3409.34,3.4312470916705444
1324,3410.59,1.7706125196316491
1325,3411.25,2.9964267446107336
1326,3412.31,1.1531250000006992
1327,3412.76,5.107704360500271
1328,3414.57,2.068593008200164
1329,3415.36,3.2842857142858133
1330,3416.57,2.006842810859122
1331,3417.32,3.277566899032519
1332,3418.54,2.1399907009188333
1333,3419.32,3.3666864852498075
1334,3420.56,2.0488637648394805
1335,3421.32,3.4912907117000747
1336,3422.64,2.000478781284579
1337,3423.4,3.309200667849223
1338,3424.69,1.8334196891186945
1339,3425.39,3.7805566508178803
1340,3426.77,0.6892980639817321
1341,3427.04,4.681635220126207
1342,3428.86,0.551685649202829
1343,3429.07,4.00953175112242
1344,3430.61,5.346084089035218
1345,3432.71,2.2468495742666414
1346,3433.52,2.9020696142996565
1347,3434.57,1.5906155398579396
1348,3435.12,4.8438239623203945
1349,3436.63,1.4939339456717209
1350,3437.01,7.402458193979783
1351,3438.8,1.0994529214736246
1352,3439.09,5.986209598432837
1353,3440.61,1.983525118075583
1354,3441.08,6.809960604071536
1355,3442.67,2.443015075377487
1356,3443.26,5.704416243654234
1357,3444.67,1.2291213389126598
1358,3445.01,5.4042165538781886
1359,3446.51,2.130862697447167
1360,3447.16,4.618503118503119
1361,3448.66,1.2629426433916777
1362,3449.1,1.9012236710139299
1363,3449.76,2.862399445214348
1364,3450.75,4.669950606196092
1365,3452.49,1.3653451826173812
1366,3453.01,3.955795677799607
1367,3454.51,1.2938114754092362
1368,3455.02,4.144394299288068
1369,3456.51,1.4627115831390023
1370,3457.06,2.6000911161732194
1371,3458.02,2.0853399385035383
1372,3458.79,5.281344537815325
1373,3460.71,0.8883126550866528
1374,3461.04,4.393762653456388
1375,3462.72,0.7751078627849463
1376,3463.0,4.704893958500566
1377,3464.73,1.354090390795577
1378,3465.26,3.8834389140260703
1379,3466.7,1.383500498173316
1380,3467.22,3.914437287738812
1381,3468.64,1.3472428271525048
1382,3469.13,4.287548569409347
1383,3470.68,1.3828213166144725
1384,3471.16,4.178981302386507
1385,3472.76,1.1860268129184468
1386,3473.23,4.2613702623911704
1387,3474.78,0.6007545863615166
1388,3475.0,4.683420388456004
1389,3476.77,4.600273972603365
1390,3478.51,1.6171587743724116
1391,3479.1,3.8937500000004572
1392,3480.65,1.2846008996756983
1393,3481.15,3.9179806478754267
1394,3482.67,1.3808133561637201
1395,3483.2,4.418237531240578
1396,3484.88,0.910917732660285
1397,3485.21,2.883100189035816
1398,3486.25,2.522349602723621
1399,3487.24,4.723880187493497
1400,3488.98,0.5681987718900234
1401,3489.19,4.755593447007009
1402,3490.97,1.1498393913791838
1403,3491.19,5.221870824053865
1404,3492.57,2.0382623052309627
1405,3493.37,2.281445795238392
1406,3494.28,1.2924451703214284
1407,3494.75,5.1452173913041435
1408,3496.58,1.2555277897458468
1409,3497.06,4.160665039659049
1410,3498.53,1.768760757313984
1411,3499.18,3.9035036496351845
1412,3500.62,1.2471419836127264
1413,3501.06,5.400522341094714
1414,3502.93,0.7489498580888805
1415,3503.2,4.220125304559595
1416,3504.74,1.1785130400936894
1417,3505.14,4.858915329274819
1418,3506.72,2.2190269067375334
1419,3507.27,5.096784409257886
1420,3508.53,2.9257750221424916
1421,3509.33,3.926308492201789
1422,3510.57,2.269401709401488
1423,3511.13,6.366687362305992
1424,3512.72,1.3298884914797462
1425,3513.04,6.019436619719097
1426,3514.57,2.253398730524818
1427,3515.15,5.7574095542676575
1428,3516.59,1.9555782312916101
1429,3517.1,6.083094944513912
1430,3518.59,2.1298929049521975
1431,3519.08,6.380913140312909
1432,3520.55,2.3296213212583288
1433,3521.12,5.948976234004687
1434,3522.59,1.636961077843688
1435,3523.02,6.440936768149383
1436,3524.66,1.7113190954781194
1437,3525.17,5.545381806635543
1438,3526.81,1.2569235328982264
1439,3527.2,4.719237764108542
1440,3528.77,2.020870251084041
1441,3529.45,3.2469492360778176
1442,3530.59,2.093333333332682
1443,3531.35,3.8365971053525145
1444,3532.78,1.896109376950512
1445,3533.44,3.51067036411864
1446,3534.69,1.943178350890092
1447,3535.38,3.2338659623632857
1448,3536.6,1.9689680923286301
1449,3537.33,1.3043645523242995
1450,3537.81,2.719644970414252
1451,3538.79,5.208422014158681
1452,3540.71,1.5419442106533894
1453,3541.26,3.5080169172931828
1454,3542.53,2.580526671167005
1455,3543.49,2.7649004865115057
1456,3544.53,1.296141464520566
1457,3545.01,4.488492462311466
1458,3546.8,0.7690221341261011
1459,3547.09,3.720164678560259
1460,3548.53,1.3352161913517513
1461,3549.02,4.851297858533181
1462,3550.87,0.6215175922006971
1463,3551.11,4.308230191989085
1464,3552.86,0.7233653541638095
1465,3553.14,4.5434447163988505
1466,3554.89,0.6475826972010178
1467,3555.14,4.707056912273159
1468,3556.97,3.349188490139547
1469,3558.25,5.423485107839781
1470,3560.25,2.712719799040877
1471,3561.25,3.4376891032673083
1472,3562.55,1.9964816099931102
1473,3563.28,3.790438247010967
1474,3564.68,1.4197395647526592
1475,3565.19,4.013668112303176
1476,3566.67,1.2334533277522444
1477,3567.15,3.6044713389815235
1478,3568.51,1.571545319464302
1479,3569.06,3.9173483197615893
1480,3570.5,1.817759326394173
1481,3571.16,4.8422370126045475
1482,3572.91,0.6400000000006306
1483,3573.15,4.631954710531275
1484,3574.93,0.6150016739203701
1485,3575.16,4.441248100716445
1486,3576.85,0.6496029127324638
1487,3577.09,3.9221405750792577
1488,3578.6,2.5845838668381305
1489,3579.36,4.357019931939655
1490,3580.63,2.0972434017588784
1491,3581.39,3.367027027027393
1492,3582.73,2.1166845652924433
1493,3583.51,3.1457355961512903
1494,3584.71,1.7275862068967935
1495,3585.36,3.808437353354279
1496,3586.74,2.8358684774854983
1497,3587.36,4.724186409788849
1498,3588.96,0.6193567251463061
1499,3589.17,4.801478847776407
1500,3590.88,0.6362462159429128
1501,3591.1,4.0945354093422495
1502,3592.52,5.979892545332034
1503,3593.06,16.217792207794552
1504,3594.57,4.263748621830547
1505,3595.03,15.771150159742097
1506,3596.52,10.906151797602815
1507,3597.04,21.128633646458784
1508,3598.57,5.5444083526689
1509,3599.01,17.401369294602915
1510,3600.54,5.182566844922595
1511,3601.01,16.510417754566447
1512,3602.54,4.77140329469447
1513,3603.01,15.338664259925247
1514,3604.54,5.90525354969797
1515,3605.07,14.568214716524107
1516,3606.52,4.223932472691162
1517,3607.02,13.245171026158495
1518,3608.57,3.6579424670896787
1519,3609.01,12.464912280701757
1520,3610.51,4.253753753753754
1521,3611.01,13.155639246778529
1522,3612.57,4.148536585364006
1523,3613.06,12.699601791936287
1524,3614.56,3.7334131736531577
1525,3615.0,13.861115557779817
1526,3616.63,1.8687664307375091
1527,3617.02,5.2384322508400345
1528,3618.71,1.7288336423386872
1529,3619.2,4.25074677625093
1530,3620.56,1.565988023951943
1531,3621.12,4.299033752481963
1532,3622.56,2.1753537486800965
1533,3623.29,4.576083895570026
1534,3624.72,1.5502475780411729
1535,3625.14,4.935639028859368
1536,3626.64,1.7754566297290677
1537,3627.25,4.505209028983571
1538,3628.75,1.1213669064745728
1539,3629.08,12.306928746928559
1540,3632.64,1.188949102892919
1541,3633.06,3.519454129024155
1542,3634.27,2.409921903160275
1543,3635.13,4.39473265630658
1544,3636.68,2.0199922898999283
1545,3637.37,3.5162261753495336
1546,3638.58,2.2438255211791263
1547,3639.33,3.8812499999997385
1548,3640.68,1.1593603021819394
1549,3641.09,4.983049688682031
1550,3642.85,0.624510909537374
1551,3643.07,4.516075322100882
1552,3644.65,2.1525197919013257
1553,3645.14,6.6855266190366445
1554,3646.64,2.135163874727044
1555,3647.1,7.214914540501316
1556,3648.63,1.9253763440863552
1557,3649.05,7.247488789236462
1558,3650.58,2.6211921891056815
1559,3651.12,7.267751858497822
1560,3652.62,2.002500000000248
1561,3653.06,7.128953113372402
1562,3654.57,2.2531556802244035
1563,3655.07,6.533494195310802
1564,3656.55,2.686582278480751
1565,3657.11,7.387687747034204
1566,3658.68,2.4574068554395563
1567,3659.2,6.524556962025927
1568,3660.56,2.566169989506731
1569,3661.08,7.247434908390341
1570,3662.65,2.1859547202049643
1571,3663.17,6.1608512020785
1572,3664.62,2.420222841225464
1573,3665.16,6.492373425537683
1574,3666.54,2.77627173660976
1575,3667.16,6.509573437860435
1576,3668.62,2.35459940652819
1577,3669.12,7.029640546370437
1578,3670.65,2.3776757812488976
1579,3671.16,6.196661528297967
1580,3672.6,1.9023445753768942
1581,3673.07,6.2854618912417735
1582,3674.54,2.460781288877744
1583,3675.06,7.536727538348653
1584,3676.68,1.8057128564287328
1585,3677.06,7.0988306757783715
1586,3678.54,2.7246458923508614
1587,3679.14,6.57552068473634
1588,3680.58,2.4638984587486266
1589,3681.14,6.7606811931472
1590,3682.76,1.1147767393559824
1591,3683.07,5.418253968253289
1592,3684.52,2.467201735357608
1593,3685.1,6.470775623269915
1594,3686.55,2.6599535565862733
1595,3687.12,7.53701149425261
1596,3688.68,1.6488619495316497
1597,3689.03,6.901622276028045
1598,3690.52,2.332296331587468
1599,3691.03,7.1844607281882045
1600,3692.65,1.960048309178104
1601,3693.04,8.080898876405444
1602,3694.59,2.099104477612304
1603,3695.01,7.931560102301175
1604,3696.65,1.9613134568889647
1605,3697.04,7.958489525910526
1606,3698.59,3.4183393501809296
1607,3699.03,12.221289009495699
1608,3700.6,2.310858369098895
1609,3701.06,7.857477736282774
1610,3702.54,3.6895983522136526
1611,3703.14,9.082515162327928
1612,3704.57,3.440922882425842
1613,3705.04,9.949117536612842
1614,3706.54,3.5526594090200936
1615,3707.06,9.517786088257655
1616,3708.5,3.287777777779185
1617,3709.01,10.112631578947013
1618,3710.57,3.407727272725693
1619,3711.08,10.22489034244088
1620,3712.59,2.9527808676295075
1621,3713.04,9.639935391243316
1622,3714.55,2.915303140977638
1623,3715.0,10.275083798882322
1624,3716.56,3.6327835051543946
1625,3717.1,9.748156424581126
1626,3718.58,3.458960060286239
1627,3719.1,9.49087936866033
1628,3720.53,3.6329596412538026
1629,3721.08,9.514509303175672
1630,3722.55,3.8954961552538947
1631,3723.15,9.21648609077646
1632,3724.57,2.8410733262475234
1633,3725.02,9.804883720930116
1634,3726.54,3.6364372469630117
1635,3727.14,9.076859585663797
1636,3728.67,2.780849377122107
1637,3729.2,7.053075221240716
1638,3730.57,2.8794416243654823
1639,3731.07,9.627928286850631
1640,3732.68,2.4894117647060794
1641,3733.14,7.902045039562181
1642,3734.56,2.9267440458256453
1643,3735.09,8.223445635527213
1644,3736.56,3.1670279520816647
1645,3737.16,7.350791618162505
1646,3738.53,2.82564587644093
1647,3739.05,8.033258713515242
1648,3740.58,2.180760201230115
1649,3741.0,7.897447687935402
1650,3742.62,2.2669656992088356
1651,3743.04,8.0380102915951
1652,3744.56,2.6158585340849085
1653,3745.1,7.325184363737553
1654,3746.52,2.5751063829799663
1655,3747.01,8.371108354009806
1656,3748.64,2.476319796955991
1657,3749.07,9.196295336785859
1658,3750.64,2.086141001857236
1659,3751.01,8.693917621554455
1660,3752.55,2.6526980482204365
1661,3753.05,7.908430646539447
1662,3754.55,2.8510664953408438
1663,3755.04,8.814694408322495
1664,3756.54,3.494806800617623
1665,3757.16,8.410149690857551
1666,3758.59,2.3492684299371485
1667,3759.04,8.163989071039666
1668,3760.51,3.3059999999983116
1669,3761.08,8.018856548857938
1670,3762.55,2.660084317030807
1671,3763.06,8.415332708528688
1672,3764.54,2.793389682308267
1673,3765.06,8.2982367758202
1674,3766.51,2.934113277622924
1675,3767.03,8.382225705328013
1676,3768.5,3.8779661016939078
1677,3769.2,7.030000000002019
1678,3770.53,2.508161318299019
1679,3771.0,8.182173913044547
1680,3772.53,2.9259222702034755
1681,3773.05,8.459480358799876
1682,3774.55,3.236291618827195
1683,3775.16,8.166021864562605
1684,3776.63,2.322740286299236
1685,3777.01,14.227554858931276
1686,3778.62,2.0349705203797424
1687,3779.04,7.105950329447628
1688,3780.52,3.0699690162669917
1689,3781.15,7.203124516628087
1690,3782.63,1.9531969971529162
1691,3783.03,7.610188526796546
1692,3784.54,2.6460500399264717
1693,3785.07,7.876241433841379
1694,3786.66,1.642681992337868
1695,3787.0,7.347193347193347
1696,3788.5,2.5397062822953496
1697,3789.0,7.701764057331863
1698,3790.5,3.070379746834832
1699,3791.14,6.712420946117309
1700,3792.54,3.2443174395830456
1701,3793.09,9.271111837800767
1702,3794.66,1.9756638871079655
1703,3795.0,9.25141985223342
1704,3796.59,2.3869060256014127
1705,3797.01,8.52493862133964
1706,3798.5,3.066694320358529
1707,3799.03,8.563599234205594
1708,3800.51,3.3973575129529414
1709,3801.09,8.868660351827014
1710,3802.55,2.618948685857529
1711,3803.01,8.951695178848732
1712,3804.59,2.523333333333646
1713,3805.03,8.85590733590723
1714,3806.55,2.580009466707698
1715,3807.0,8.668659924147903
1716,3808.51,3.430591861897049
1717,3809.12,9.004312279577846
1718,3810.67,2.0891454272869567
1719,3811.05,8.189445591269727
1720,3812.56,3.2192335115872464
1721,3813.15,7.8666587325203805
1722,3814.59,2.5218044237474713
1723,3815.06,8.011219994352924
1724,3816.59,2.5395660036168373
1725,3817.05,8.147730116173964
1726,3818.54,2.9200086182141227
1727,3819.09,8.402343059238131
1728,3820.64,2.3044551002631115
1729,3821.07,8.211891117477064
1730,3822.62,2.4906362854699653
1731,3823.09,7.817425064230755
1732,3824.57,2.5072996037783217
1733,3825.02,8.164733514001906
1734,3826.5,3.5220174121878314
1735,3827.14,8.572273430250437
1736,3828.66,2.5508736717841445
1737,3829.13,7.427326906223199
1738,3830.51,3.750439494279651
1739,3831.19,7.133270698767766
1740,3832.51,3.764866310158244
1741,3833.2,7.020549258938499
1742,3834.51,2.6422693997059974
1743,3835.0,8.206169481821746
1744,3836.55,2.600141342756282
1745,3837.03,8.00477016478751
1746,3838.53,2.7322265321952344
1747,3839.09,7.447164685908701
1748,3840.51,2.831111111111012
1749,3841.03,8.150050293376529
1750,3842.6,2.739670649957453
1751,3843.11,7.468262313225406
1752,3844.56,3.2137265415543204
1753,3845.2,6.603592386996345
1754,3846.53,2.529220779220779
1755,3847.03,8.35130193905761
1756,3848.65,2.511111754486482
1757,3849.12,8.01984931903796
1758,3850.62,2.3205312208777986
1759,3851.03,8.58719557195429
1760,3852.56,2.4934228187920406
1761,3853.04,7.7928764805426916
1762,3854.53,2.676525063720084
1763,3855.04,7.882615509321528
1764,3856.6,2.9375827908290373
1765,3857.16,6.816004279219681
1766,3858.52,2.6228417775261814
1767,3859.02,7.963978132885819
1768,3860.55,2.6729119514213804
1769,3861.07,8.29072980949643
1770,3862.72,2.650229357798165
1771,3863.22,7.2313804905893875
1772,3864.59,2.6942553191487546
1773,3865.13,7.452094411284932
1774,3866.6,2.017843137256424
1775,3867.01,7.367653244421559
1776,3868.53,3.0522747952669116
1777,3869.08,8.187918215614923
1778,3870.53,3.510219445289144
1779,3871.16,7.801924882631075
1780,3872.53,3.6398876404476326
1781,3873.08,21.441751824818056
1782,3874.54,1.9725575447581019
1783,3875.01,6.678371040723902
1784,3876.53,2.463836049621779
1785,3877.06,7.257272265923404
1786,3878.57,2.188794435856921
1787,3879.02,7.996153846154287
1788,3880.67,2.078351648350857
1789,3881.1,7.242725892180242
1790,3882.61,2.403590702645028
1791,3883.09,8.271764371085547
1792,3884.66,2.098291457286692
1793,3885.1,6.589028910304357
1794,3886.5,2.5647732696894874
1795,3887.06,6.864428813970494
1796,3888.54,2.7113081822632563
1797,3889.12,6.740793489318851
1798,3890.52,2.642300446206981
1799,3891.08,7.546767371600861
1800,3892.66,2.134095112286781
1801,3893.09,6.945200209368558
1802,3894.5,2.9620182256774927
1803,3895.09,7.732647975077526
1804,3896.67,1.9086747990013777
1805,3897.04,8.108925619834338
1806,3898.62,1.9576323987543391
1807,3899.02,8.331341367566422
1808,3900.71,1.964697173619816
1809,3901.1,7.391052631580229
1810,3902.57,2.5369364475828355
1811,3903.07,7.815157639448907
1812,3904.62,2.5910663764973005
1813,3905.13,7.326790056740503
1814,3906.58,2.434958983859339
1815,3907.07,7.739415584414296
1816,3908.6,2.186535947713898
1817,3909.03,8.412934051142086
1818,3910.7,2.495465870751133
1819,3911.21,7.4304164470216145
1820,3912.71,2.021806515300316
1821,3913.14,6.835953035223842
1822,3914.58,2.8239801543559504
1823,3915.13,7.946155580608699
1824,3916.65,2.4949099836322763
1825,3917.14,6.9060304142636895
1826,3918.54,2.6204549040241285
1827,3919.07,7.942494714587287
1828,3920.67,1.9965939329435087
1829,3921.07,7.32968642040825
1830,3922.54,2.3800514765659058
1831,3923.01,7.55846193283747
1832,3924.57,2.075408163264516
1833,3925.0,8.248462697814706
1834,3926.73,2.004905660377706
1835,3927.15,6.624410636665286
1836,3928.52,2.802391884676715
1837,3929.08,7.141296296297533
1838,3930.55,2.6885411140581743
1839,3931.09,7.830529595015132
1840,3932.69,2.20234979973325
1841,3933.13,7.411511203750793
1842,3934.64,2.138841698841964
1843,3935.08,7.163226780770199
1844,3936.58,3.0896564289437944
1845,3937.21,6.962628320865852
1846,3938.64,2.601068702289901
1847,3939.18,6.699015897048127
1848,3940.58,2.1567003792680586
1849,3941.03,7.39931923671987
1850,3942.55,2.876230948073925
1851,3943.14,7.2226568265680955
1852,3944.68,2.079751552795289
1853,3945.12,7.094567526555475
1854,3946.6,2.378640483385296
1855,3947.03,9.061431870668777
1856,3948.73,1.3148916408667846
1857,3949.0,7.635895357406554
1858,3950.63,1.9634225814592678
1859,3951.04,7.248825045092621
1860,3952.53,3.2116581837657687
1861,3953.17,7.473002610965968
1862,3954.69,2.55238616128089
1863,3955.22,6.711592649312454
1864,3956.61,2.161439749609032
1865,3957.05,7.24981651376048
1866,3958.52,2.752235834610285
1867,3959.09,7.744838709675912
1868,3960.68,2.022057667105064
1869,3961.09,7.191530612243843
1870,3962.58,2.090659114316554
1871,3963.01,7.2295993836661205
1872,3964.5,2.7305426356586486
1873,3965.06,7.012738336714172
1874,3966.52,2.7511739594459472
1875,3967.07,6.95692604998632
1876,3968.5,3.853137697516446
1877,3969.08,11.603277952402335
1878,3970.58,2.0520524017468027
1879,3971.06,7.030000000000086
1880,3972.54,3.2303939557467936
1881,3973.18,6.927685589520299
1882,3974.54,2.539177718833978
1883,3975.05,7.488586387434465
1884,3976.57,2.956755578351837
1885,3977.18,6.571763795772787
1886,3978.53,2.406163723916624
1887,3979.01,7.87753929694083
1888,3980.5,3.615856706469485
1889,3981.2,6.599364599092805
1890,3982.58,2.3145839874423846
1891,3983.05,7.546185725249161
1892,3984.61,3.024248021106556
1893,3985.22,6.831803278689266
1894,3986.56,2.681556156969889
1895,3987.09,7.652163499088511
1896,3988.65,1.900457010069093
1897,3989.04,7.442933118452952
1898,3990.52,2.5157682223398288
1899,3991.03,7.195756951596381
1900,3992.51,2.7116268614778485
1901,3993.03,8.290326653856152
1902,3994.65,2.415091671030878
1903,3995.14,6.736910911966893
1904,3996.5,2.6224258760106895
1905,3997.02,7.801680559291047
1906,3998.57,2.6613672922239227
1907,3999.1,7.188688524591741
1908,4000.51,3.30493721613606
1909,4001.17,7.014133545309292
1910,4002.58,2.1966497461932732
1911,4003.0,8.348240866035642
1912,4004.65,2.168075990298285
1913,4005.08,7.205490870602045
1914,4006.53,2.655987460814868
1915,4007.07,8.39105193075817
1916,4008.75,2.09776298269011
1917,4009.17,6.990083682008727
1918,4010.59,2.6564117308798156
1919,4011.09,7.674533479692647
1920,4012.59,1.9748854961825053
1921,4013.0,7.609547315194256
1922,4014.65,2.5648093166099786
1923,4015.18,6.7797662061642905
1924,4016.54,2.5944680851062922
1925,4017.06,7.443649440597878
1926,4018.55,2.6415537848592887
1927,4019.08,9.648609271523451
1928,4021.02,7.52373204492133
1929,4022.55,3.2416479017381725
1930,4023.22,6.504603299293815
1931,4024.54,3.424389763779613
1932,4025.27,6.326355742992501
1933,4026.61,2.064415456559449
1934,4027.05,7.728571066631315
1935,4028.66,1.9394702810260835
1936,4029.07,7.744218362282277
1937,4030.71,2.226513056835813
1938,4031.17,6.313468847726224
1939,4032.54,2.439487975174554
1940,4033.04,7.368594164456325
1941,4034.52,2.8121332602148046
1942,4035.07,7.831482701810887
1943,4036.6,2.180047455839975
1944,4037.04,7.303333333334598
1945,4038.51,3.2901806588728135
1946,4039.17,7.309831932773198
1947,4040.65,2.1228148903623234
1948,4041.09,6.888549422336681
1949,4042.51,3.265343347637657
1950,4043.16,6.66914893617201
1951,4044.51,2.41393230462805
1952,4045.02,7.877228464418785
1953,4046.68,2.4934067928452466
1954,4047.19,6.844646098004074
1955,4048.59,3.32873015873052
1956,4049.26,6.91208116545194
1957,4050.67,2.1320333914768357
1958,4051.12,6.735697529324029
1959,4052.54,2.735653495441515
1960,4053.11,7.53701149425261
1961,4054.67,2.1185350966431926
1962,4055.11,7.057889447236268
1963,4056.59,2.119451659451827
1964,4057.05,7.68999999999818
1965,4058.74,2.011657675332406
1966,4059.17,6.379751340808854
1967,4060.54,2.5479325731282367
1968,4061.08,7.188114815744333
1969,4062.59,2.0534583438200085
1970,4063.02,7.930482315112175
1971,4064.6,4.42144772118063
1972,4065.0,9.85092749836751
1973,4066.67,2.1629392799561886
1974,4067.1,7.379278808466161
1975,4068.6,2.1818844022172144
1976,4069.04,7.504423337856266
1977,4070.52,4.627465437788194
1978,4071.0,11.420997526794121
1979,4072.59,3.0312754696993522
1980,4073.2,6.783799890652577
1981,4074.53,2.8546303501944523
1982,4075.05,7.806186931348128
1983,4076.57,2.184186046511899
1984,4077.01,7.198812260535344
1985,4078.5,2.6188071466116036
1986,4079.03,7.726862745096606
1987,4080.6,2.025869679455022
1988,4081.01,8.069691583899008
1989,4082.65,2.0369841269834037
1990,4083.06,7.863879310344553
1991,4084.62,2.2611081298645317
1992,4085.07,7.949669694465983
1993,4086.62,2.2165814266489967
1994,4087.06,7.240740643811774
1995,4088.53,3.2632079936884733
1996,4089.19,6.687374802319002
1997,4090.54,2.990952380953005
1998,4091.15,7.190793822812614
1999,4092.57,2.115393258426161
2000,4093.0,7.292486596886426
2001,4094.51,3.065437812252944
2002,4095.13,7.1257067649361625
2003,4096.57,2.275959092045146
2004,4097.05,7.689420289853792
2005,4098.58,2.7232884097033208
2006,4099.12,7.705995694293658
2007,4100.65,2.140154559507887
2008,4101.09,6.991540674863031
2009,4102.51,2.7631869510661526
2010,4103.09,7.0610479485912006
2011,4104.59,2.3569551616245508
2012,4105.07,6.995527950312794
2013,4106.55,3.2103991596620682
2014,4107.2,7.222674145579128
2015,4108.67,2.006207878498413
2016,4109.11,6.509605734767359
2017,4110.53,2.7444659206540463
2018,4111.1,7.22536714609813
2019,4112.61,2.022645637242782
2020,4113.03,7.150061823803403
2021,4114.5,2.6681595092010917
2022,4115.07,7.202808169220393
2023,4116.62,2.1417293233074046
2024,4117.07,6.940381970972662
2025,4118.51,3.4185452695830847
2026,4119.22,6.361225790633428
2027,4120.58,2.1574169741699123
2028,4121.04,7.319888592879295
2029,4122.62,2.2892656058741334
2030,4123.11,6.839345040341718
2031,4124.61,2.6056111757854703
2032,4125.19,6.325920155796281
2033,4126.55,2.193668341708716
2034,4127.01,7.407898715042442
2035,4128.56,2.180769230768349
2036,4129.01,7.080295147572749
2037,4130.5,2.665426397270878
2038,4131.04,7.742820578450699
2039,4132.64,2.131006917753634
2040,4133.08,6.993547094189589
2041,4134.55,3.1164459591045253
2042,4135.22,7.035371024731848
2043,4136.69,2.0770888661913958
2044,4137.12,7.209547055864152
2045,4138.63,2.7791911021230082
2046,4139.21,6.12266733266716
2047,4140.5,2.4426359256718335
2048,4141.05,7.590000000000694
2049,4142.64,2.435473795657994
2050,4143.13,6.925435487896355
2051,4144.59,2.1798404785644796
2052,4145.05,6.715068990558344
2053,4146.5,2.9894267515918305
2054,4147.12,7.528400617126109
2055,4148.67,2.266220396325718
2056,4149.16,6.659143290373063
2057,4150.55,2.0981755196316216
2058,4151.02,6.791676300575921
2059,4152.54,3.12758831841552
2060,4153.23,6.360202622170747
2061,4154.62,2.0095600475647517
2062,4155.06,5.060695187162269
2063,4156.11,4.289826589596718
2064,4157.04,7.295741626794926
2065,4158.63,1.810436023876964
2066,4159.0,7.505823050671624
2067,4160.52,3.9111488862817074
2068,4161.09,6.4698086124395235
2069,4162.5,3.3462440191369605
2070,4163.11,8.38814814815204
2071,4164.6,3.068879175772506
2072,4165.14,8.013341448567463
2073,4166.58,2.489274924470293
2074,4167.03,8.375081178595309
2075,4168.55,2.663270254286217
2076,4169.04,7.778522792844971
2077,4170.5,2.8299161230195717
2078,4171.0,9.647119822954565
2079,4172.68,1.7789602612928173
2080,4173.03,8.480333131439124
2081,4174.56,2.698768689533861
2082,4175.06,8.26488274203247
2083,4176.56,3.557843722037973
2084,4177.21,7.323451327435602
2085,4178.56,3.0586567164177043
2086,4179.1,8.37895826696295
2087,4180.55,2.886514445481198
2088,4181.06,8.466129032257001
2089,4182.51,2.926744045823134
2090,4183.04,8.818064516131294
2091,4184.6,2.309622075585283
2092,4185.02,8.441609727851379
2093,4186.6,2.5864815370723497
2094,4187.07,8.160029359954203
2095,4188.58,3.0810132158574577
2096,4189.15,8.291427709025054
2097,4190.65,1.9211448395521091
2098,4191.01,7.979547038326357
2099,4192.5,3.1199552639411445
2100,4193.07,7.941207457827957
2101,4194.53,3.6121362229120644
2102,4195.17,8.105446756424932
2103,4196.62,2.2663235737993768
2104,4197.03,8.176394439621223
2105,4198.56,2.456475063394718
2106,4199.03,8.57695214106077
2107,4200.68,2.2813203214662945
2108,4201.11,8.177497680177318
2109,4202.56,3.80279301745161
2110,4203.23,7.564087038792569
2111,4204.55,2.6204410517387617
2112,4205.05,7.6134138803036455
2113,4206.51,2.74529303467199
2114,4207.0,8.735492589364142
2115,4208.63,2.1685158456234657
2116,4209.01,8.586614173228346
2117,4210.51,2.9636922176721328
2118,4211.06,8.41091017251616
2119,4212.6,3.2231419411221047
2120,4213.2,7.218036425725094
2121,4214.57,3.310851063830361
2122,4215.2,7.112961082913365
2123,4216.56,3.1214645308884066
2124,4217.15,7.201441543704549
2125,4218.52,3.182496413196532
2126,4219.12,7.578259329881755
2127,4220.61,2.8763636363676937
2128,4221.1,7.868015267174759
2129,4222.51,3.155961148159665
2130,4223.1,7.701929824558072
2131,4224.53,2.6026415094365265
2132,4225.01,8.591834319526232
2133,4226.59,2.639568086380323
2134,4227.07,7.822692645770112
2135,4228.52,3.1362068965475753
2136,4229.07,9.137468354431217
2137,4230.66,2.1937407711253574
2138,4231.09,7.62238120520181
2139,4232.62,1.9637732703534398
2140,4233.0,8.304793724579707
2141,4234.55,3.1824528866283774
2142,4235.13,8.187482014388296
2143,4236.67,1.87515151514981
2144,4237.03,8.542637828668934
2145,4238.66,2.077852348996123
2146,4239.06,8.06180605723549
2147,4240.62,2.5721529745031035
2148,4241.11,7.943298969072165
2149,4242.61,2.153149931224582
2150,4243.03,8.21142664872195
2151,4244.66,2.097242798353165
2152,4245.07,8.988101879926623
2153,4246.69,2.1959906880532145
2154,4247.14,7.102286902286012
2155,4248.59,2.0123970818127304
2156,4249.0,7.6462648691512864
2157,4250.54,3.124061757720256
2158,4251.17,6.659265493497084
2159,4252.55,2.516820566632767
2160,4253.06,7.6864173769590325
2161,4254.56,5.151990291255153
2162,4255.07,17.686809097178898
2163,4256.63,2.8000350774601834
2164,4257.15,7.9657823892350414
2165,4258.68,2.3455349620883528
2166,4259.13,7.3439569770714
2167,4260.53,3.3442227378214158
2168,4261.09,8.430227272728732
2169,4262.56,2.5723956894169664
2170,4263.06,7.496236676684281
2171,4264.53,3.0977925758012748
2172,4265.12,7.8955150015496285
2173,4266.52,3.3123036030696924
2174,4267.13,7.461636575424006
2175,4268.52,3.1751072961344513
2176,4269.12,7.653398766125834
2177,4270.59,2.5970244045845243
2178,4271.07,7.855646180358627
2179,4272.55,2.7720387761284457
2180,4273.05,9.02466823253122
2181,4274.72,1.9666628308394658
2182,4275.09,7.799385140902909
2183,4276.57,3.019708356701808
2184,4277.15,7.3535576638027536
2185,4278.5,3.034160789844471
2186,4279.08,8.088579795021962
2187,4280.58,2.1856950672649527
2188,4281.0,7.808656716417726
2189,4282.54,2.5882015415346737
2190,4283.03,7.819234723017918
2191,4284.51,2.550555088308368
2192,4285.0,8.127499298346176
2193,4286.56,3.091547344110467
2194,4287.14,7.245747259086541
2195,4288.5,3.3000166251055956
2196,4289.14,7.79915543575961
2197,4290.56,2.9922662440543313
2198,4291.08,8.63742564758428
2199,4292.57,3.226619318183199
2200,4293.08,8.88335611756553
2201,4294.53,3.1948971193442457
2202,4295.05,9.147858599592114
2203,4296.55,3.5545143282468765
2204,4297.09,9.590310701956763
2205,4298.51,3.5869371912472867
2206,4299.08,8.253493743985024
2207,4300.5,3.08142857142989
2208,4301.01,9.821147485655766
2209,4302.63,2.5197770154364987
2210,4303.04,9.5719888734351
2211,4304.58,2.755162220621908
2212,4305.01,10.27889927310398
2213,4306.67,2.842204724406864
2214,4307.15,8.48467661691586
2215,4308.57,3.316809977028954
2216,4309.13,8.575777998015456
2217,4310.57,3.4343307086609864
2218,4311.15,8.254221020618605
2219,4312.51,3.9340467684317364
2220,4313.18,8.009282920467433
2221,4314.54,2.8912525117242147
2222,4315.02,9.146190319393924
2223,4316.56,3.4793241919641527
2224,4317.15,8.741317465643004
2225,4318.6,2.5153540252146165
2226,4319.03,9.450909090912507
2227,4320.64,2.4565890183019565
2228,4321.05,9.54906523201032
2229,4322.63,2.564315861130465
2230,4323.05,9.629441284707323
2231,4324.65,2.4968680013619653
2232,4325.06,8.68077846253393
2233,4326.54,2.8291925465838506
2234,4327.04,8.618000632711167
2235,4328.54,4.716166727341971
2236,4329.27,10.279982509835742
2237,4330.63,1.7584178985201746
2238,4331.07,6.221488848704769
2239,4332.62,1.6845785404507525
2240,4333.06,7.13210567210585
2241,4334.52,2.7506703910601313
2242,4335.05,8.010179333900155
2243,4336.57,3.198311229001673
2244,4337.16,7.47990735379562
2245,4338.56,3.1134199726385474
2246,4339.17,7.326595231717301
2247,4340.63,1.89430650920021
2248,4341.0,7.849105933352317
2249,4342.55,2.669973082098313
2250,4343.08,7.747827147113313
2251,4344.61,2.0524373450867985
2252,4345.01,7.84630630630612
2253,4346.55,2.481330262800303
2254,4347.04,7.965782389230306
2255,4348.57,2.4943632397089996
2256,4349.06,7.855093081409059
2257,4350.58,6.969426751596582
2258,4351.18,15.550561009811386
2259,4352.53,2.4962736225712003
2260,4353.03,8.143773584905468
2261,4354.57,3.016858730625145
2262,4355.13,8.219526411655135
2263,4356.61,2.742528348149747
2264,4357.1,8.423997725331219
2265,4358.7,2.1283570829833187
2266,4359.11,7.648211382114928
2267,4360.62,3.028428661217904
2268,4361.15,7.946603773586777
2269,4362.54,3.1816746411479264
2270,4363.12,7.594257854821235
2271,4364.62,1.9975845012382807
2272,4365.01,7.775560165976227
2273,4366.52,2.5150480497433314
2274,4367.0,8.42381088825292
2275,4368.59,2.564300091491511
2276,4369.05,8.843008029646292
2277,4370.62,2.647357859534837
2278,4371.06,9.333522267206257
2279,4372.6,2.5404981487718974
2280,4373.02,8.99014884979437
2281,4374.5,3.44065843621645
2282,4375.06,10.13434782608198
2283,4376.69,2.325163744626497
2284,4377.08,8.485921052633305
2285,4378.51,3.055760728215686
2286,4379.03,9.103920243325447
2287,4380.53,3.4157235984350343
2288,4381.11,8.141573033711039
2289,4382.51,3.58391069012267
2290,4383.1,8.936982729423718
2291,4384.57,2.8181681476420546
2292,4385.03,9.843598326359379
2293,4386.61,2.3531250000032102
2294,4387.01,9.973333333329792
2295,4388.65,2.620896739132209
2296,4389.08,9.468077053060895
2297,4390.64,2.647942539384633
2298,4391.11,7.9979095713472415
2299,4392.59,2.6318208092476207
2300,4393.0,9.302096774193327
2301,4394.54,3.075392354126065
2302,4395.05,8.956956521738528
2303,4396.67,2.1837974683550576
2304,4397.05,8.558311195444666
2305,4398.54,2.629811320754925
2306,4399.0,9.030340557277594
2307,4400.6,2.4865116279047155
2308,4401.04,8.650605296344253
2309,4402.55,3.5286536758173344
2310,4403.2,7.17880615013667
2311,4404.5,3.1053991291723246
2312,4405.08,7.919254167886719
2313,4406.55,3.090636792451252
2314,4407.12,8.122610282932968
2315,4408.58,2.716564348073246
2316,4409.1,8.342287467130177
2317,4410.65,1.9703460207655077
2318,4411.02,8.368263020072915
2319,4412.58,2.384035346099961
2320,4413.02,8.943790008969584
2321,4414.65,2.6387180296812947
2322,4415.11,8.478742964356654
2323,4416.6,2.5534590215009936
2324,4417.05,8.16089170009154
2325,4418.5,3.2162395543159064
2326,4419.07,8.465944272445821
2327,4420.57,2.6558839528584643
2328,4421.05,8.155870224379823
2329,4422.52,2.653913043475847
2330,4423.0,8.260817307692307
2331,4424.5,3.2785426008974285
2332,4425.13,5.8814587737837485
2333,4426.54,2.215657177468934
2334,4427.09,6.329498787387671
2335,4428.66,1.1912769153735692
2336,4429.0,5.336601426437991
2337,4430.53,1.7245782831448668
2338,4431.13,4.914916559692764
2339,4432.81,0.6139357765291502
2340,4433.03,5.488690614138233
2341,4434.76,1.4891662911227646
2342,4435.1,6.958312829525015
2343,4436.72,1.6374785100271638
2344,4437.24,3.878363766560169
2345,4438.63,1.5508573567951034
2346,4439.17,3.909185520361777
2347,4440.5,1.578552200801419
2348,4441.06,4.127319587626928
2349,4442.61,1.840257510731744
2350,4443.27,3.7359775140516254
2351,4444.57,1.4008338662246826
2352,4445.05,4.661616702356007
2353,4446.6,3.804910122984292
2354,4447.07,12.90560336763797
2355,4448.68,1.7870712046567772
2356,4449.09,5.492682720027777
2357,4450.64,2.103557451077518
2358,4451.37,3.1123183391012397
2359,4452.51,1.8312454567472183
2360,4453.16,3.990560928434977
2361,4454.52,1.7972430830016695
2362,4455.15,4.297974105104192
2363,4456.63,1.8895413228908888
2364,4457.24,3.8530367193801536
2365,4458.52,6.620521455728703
2366,4460.7,1.694593110334916
2367,4461.29,3.843719739936368
2368,4462.54,1.8333267771850548
2369,4463.13,4.2661782579333885
2370,4464.54,1.8254901960795382
2371,4465.14,5.962747537583717
2372,4466.8,0.8092957746485668
2373,4467.06,5.014948552611747
2374,4468.7,1.8457809410831072
2375,4469.32,4.261846036972123
2376,4470.79,1.4580991313234541
2377,4471.29,2.893839746133247
2378,4472.26,2.359373650107221
2379,4473.04,5.658715272201206
2380,4474.7,1.4209174311954067
2381,4475.02,6.384857685008928
2382,4476.68,2.2393921383216413
2383,4477.42,5.050015777847902
2384,4478.92,0.7719934978565463
2385,4479.16,4.6275840194350515
2386,4480.69,1.7668617021280952
2387,4481.28,3.6682185806806755
2388,4482.51,2.436192660550881
2389,4483.14,6.060792480647495
2390,4484.75,1.1436094674553692
2391,4485.08,5.106347171020997
2392,4486.58,1.7354827875747079
2393,4487.14,4.371979405032494
2394,4488.53,2.6400000000003274
2395,4489.41,3.805180906049994
2396,4490.57,1.4372751206692829
2397,4491.02,4.724639498430925
2398,4492.66,2.3580654475470544
2399,4493.43,4.179078694815319
2400,4494.73,1.3651733464483577
2401,4495.21,4.063368460669508
2402,4496.62,2.23741622724992
2403,4497.25,4.9053846153844995
2404,4498.79,0.8921831819981721
2405,4499.09,4.831075366453078
2406,4500.73,1.9652569809810105
2407,4501.38,4.136843730697443
2408,4502.83,0.6140786749476816
2409,4503.03,4.9144765390140766
2410,4504.69,1.8902721511144038
2411,4505.35,3.467462686567268
2412,4506.56,2.6210793165700634
2413,4507.41,3.744654592083303
2414,4508.51,1.9040192926034358
2415,4509.16,4.02596968113084
2416,4510.52,1.4014583333327089
2417,4511.01,4.859105426586537
2418,4512.52,2.869158186861405
2419,4513.28,6.096310947561611
2420,4514.65,1.5104081632674367
2421,4515.14,3.98863935625416
2422,4516.55,1.3794427244589516
2423,4517.02,4.821436170211786
2424,4518.63,2.4716139240504162
2425,4519.46,3.561238467988809
2426,4520.61,1.6276156583641526
2427,4521.17,4.451981107320913
2428,4522.67,2.022061106320173
2429,4523.38,3.8849144429828466
2430,4524.77,0.8888436123346903
2431,4525.06,5.015774902196691
2432,4526.6,1.7952281134379167
2433,4527.23,3.5146368715101777
2434,4528.51,1.558483591097594
2435,4529.05,5.488528839920358
2436,4530.65,1.2728075709793913
2437,4531.09,3.907191361589893
2438,4532.52,1.6245890128038456
2439,4533.05,5.07861509374581
2440,4534.56,1.3031085043989301
2441,4535.02,5.723119266053358
2442,4536.5,3.109664130150106
2443,4537.13,7.709871794871613
2444,4538.67,2.9834745762729953
2445,4539.27,6.870856606428277
2446,4540.79,1.1357677008754257
2447,4541.17,4.1706663818878535
2448,4542.5,4.447185799429194
2449,4543.41,4.537344632769285
2450,4544.84,0.660881763527819
2451,4545.06,4.8828011925725265
2452,4546.67,1.846744321490741
2453,4547.25,4.030448548813363
2454,4548.51,1.691605667059349
2455,4549.08,4.607305620770612
2456,4550.58,1.7532973701953296
2457,4551.16,5.111621846409311
2458,4552.82,1.3247824213703288
2459,4553.24,4.336652216474911
2460,4554.64,1.4272437837113712
2461,4555.12,4.341083890127453
2462,4556.64,1.2265548585330506
2463,4557.06,4.417947104889492
2464,4558.57,1.6083774593167803
2465,4559.14,4.429860254828873
2466,4560.59,1.2854376657833635
2467,4561.02,4.764005582693537
2468,4562.56,1.5549945182096618
2469,4563.11,4.790512056353071
2470,4564.69,1.210364393547284
2471,4565.1,4.586989507666047
2472,4566.62,1.8332411408813603
2473,4567.2,4.268494391133497
2474,4568.61,1.4300548291861106
2475,4569.07,4.370264064293915
2476,4570.57,1.727395715897327
2477,4571.17,4.460915909988156
2478,4572.67,1.246869300912698
2479,4573.1,4.437637362636806
2480,4574.55,1.5989510489515777
2481,4575.1,5.374908627282272
2482,4576.82,0.6027926960279717
2483,4577.02,4.352977281283309
2484,4578.53,1.5489102796953906
2485,4579.08,4.537667071688944
2486,4580.58,1.2804206500958242
2487,4581.0,4.433225806450874
2488,4582.53,1.907159450898547
2489,4583.17,4.837678300455446
2490,4584.84,0.8300110619454488
2491,4585.11,4.514766544866081
2492,4586.6,1.2588585607928997
2493,4587.04,4.168568106719606
2494,4588.51,1.5902524698119458
2495,4589.03,5.014369589764883
2496,4590.77,1.1110649574739981
2497,4591.16,4.112127082527755
2498,4592.56,2.3226992031857905
2499,4593.37,3.797438524590696
2500,4594.67,1.369234693878293
2501,4595.14,5.196691176470589
2502,4596.89,0.5198363750768797
2503,4597.07,4.738315565031765
2504,4598.65,1.7333585190792526
2505,4599.25,4.034252386003208
2506,4600.6,1.2929917045740034
2507,4601.03,5.162192902638763
2508,4602.78,1.335943037143442
2509,4603.23,3.8492574820077254
2510,4604.56,1.9682818757241922
2511,4605.23,5.0382375046974825
2512,4606.98,0.3900000000003274
2513,4607.11,4.718657131505543
2514,4608.69,1.4414758164538608
2515,4609.16,4.108924205378457
2516,4610.61,1.4835117599372105
2517,4611.1,4.522937062937176
2518,4612.56,2.7775290390682237
2519,4613.12,6.850298468728338
2520,4614.52,2.6401413427537825
2521,4615.04,8.361828193833158
2522,4616.67,2.744165170556553
2523,4617.17,7.002448109183581
2524,4618.5,2.9822128110129253
2525,4619.1,2.1423471756493284
2526,4619.54,7.3187479935796365
2527,4621.0,7.823319171533335
2528,4622.57,2.1395149748225455
2529,4623.0,7.787001055964766
2530,4624.57,2.9525200213568414
2531,4625.16,7.211671159031117
2532,4626.59,2.2832428028236293
2533,4627.04,7.442063914779203
2534,4628.53,2.875253664037028
2535,4629.08,8.578772899100526
2536,4630.68,2.097902350814346
2537,4631.06,8.25655677655434
2538,4632.54,3.0246625766869126
2539,4633.08,8.30160419790225
2540,4634.59,2.385181255523914
2541,4635.03,8.387280647171318
2542,4636.51,3.400484903932301
2543,4637.12,8.135086593973664
2544,4638.52,1.9599588900290499
2545,4639.0,7.567850467291031
2546,4640.68,1.8811267605616693
2547,4641.04,7.9731266452204475
2548,4642.52,2.7414823670053794
2549,4643.02,8.404106463875584
2550,4644.58,2.7092028985495182
2551,4645.07,8.106865671644382
2552,4646.55,2.606741573033708
2553,4647.05,7.732686980609419
2554,4648.55,3.522017412185329
2555,4649.19,7.2251113786897445
2556,4650.5,3.4971116504860427
2557,4651.13,7.858935912938734
2558,4652.55,3.360820288040904
2559,4653.14,8.097120211358684
2560,4654.5,3.9365080475864063
2561,4655.13,8.906297960592063
2562,4656.57,3.6455391120502822
2563,4657.15,9.16633507853562
2564,4658.62,2.3900000000020065
2565,4659.01,9.131025641024303
2566,4660.5,3.524162436547781
2567,4661.08,10.199926393270925
2568,4662.71,2.002862732312563
2569,4663.05,8.257511737088166
2570,4664.5,3.6233481152999625
2571,4665.13,8.492002526845253
2572,4666.61,2.478823529412194
2573,4667.03,9.24158806544839
2574,4668.62,2.512328130189741
2575,4669.04,9.741313131311152
2576,4670.65,2.4126050146577027
2577,4671.06,9.378617966435897
2578,4672.64,2.4538683948146827
2579,4673.05,9.5549221080511
2580,4674.65,2.609781021898262
2581,4675.07,9.546067062525916
2582,4676.6,2.654905139699528
2583,4677.03,9.604112903226683
2584,4678.62,2.5419265746046844
2585,4679.04,9.469480692409682
2586,4680.62,2.5461583883283776
2587,4681.03,9.43402848423305
2588,4682.58,2.5301232665629216
2589,4683.03,8.487818853975348
2590,4684.54,3.374352651050135
2591,4685.14,8.541977646689663
2592,4686.65,1.9703703703724182
2593,4687.0,8.776605620459543
2594,4688.53,3.8408304927193386
2595,4689.21,8.293073322933125
2596,4690.67,2.047381183319296
2597,4691.02,8.974824589636093
2598,4692.56,2.6480216802143937
2599,4693.04,8.044485868911805
2600,4694.5,3.511791044775501
2601,4695.12,7.977530266346648
2602,4696.56,2.6913022112997633
2603,4697.04,8.277305572568475
2604,4698.52,2.880774818399317
2605,4699.04,9.281668185962117
2606,4700.71,2.0459194505132814
2607,4701.07,8.477583155327427
2608,4702.59,2.420126504167019
2609,4703.02,9.230700536444951
2610,4704.63,2.0548816029137837
2611,4705.0,8.357037484886334
2612,4706.51,3.647518796989164
2613,4707.15,7.865155279504958
2614,4708.54,2.643544303797677
2615,4709.0,8.625928369464017
2616,4710.51,3.309115044246011
2617,4711.12,7.868571428574211
2618,4712.56,3.1738310608564726
2619,4713.09,8.765854939281958
2620,4714.57,2.3916615787195457
2621,4715.13,5.765084882782094
2622,4716.56,1.8103769401313912
2623,4717.04,6.009450867051618
2624,4718.66,1.8982585055140222
2625,4719.23,4.457479501975792
2626,4720.59,2.3223235923015246
2627,4721.33,4.626764495347974
2628,4722.8,1.0303161850443958
2629,4723.15,5.016338182817362
2630,4724.79,2.0591238507310057
2631,4725.47,3.6785940007405453
2632,4726.76,1.1833903420518939
2633,4727.17,5.028790906819885
2634,4728.92,0.5266872110948423
2635,4729.1,4.50915167095105
2636,4730.64,1.2231039392490064
2637,4731.08,5.461096824980752
2638,4732.92,0.9051018099546375
2639,4733.21,7.4557738896344095
2640,4734.69,3.8603958403240144
2641,4735.33,4.266657029274807
2642,4736.85,0.8060521042076838
2643,4737.13,4.652734344612777
2644,4738.71,1.831362620998703
2645,4739.35,3.6034149926493195
2646,4740.62,1.2283860278906722
2647,4741.02,4.969212198218555
2648,4742.73,1.9602811657467785
2649,4743.4,3.6844736496274977
2650,4744.64,1.2799957561178086
2651,4745.05,4.8688012097887325
2652,4746.64,1.2943409915357735
2653,4747.1,4.511681174482814
2654,4748.63,1.206838559211803
2655,4749.04,5.068040487932233
2656,4750.76,1.9248430962332324
2657,4751.41,3.385211806506285
2658,4752.52,1.8176646706576651
2659,4753.17,4.603660477453472
2660,4754.71,1.3371586715874404
2661,4755.18,3.894651753940433
2662,4756.52,1.9957894736823953
2663,4757.2,4.221664564943358
2664,4758.66,1.5331376220415815
2665,4759.17,3.7650054924933865
2666,4760.5,2.772596828696506
2667,4761.44,3.0452959207744095
2668,4762.54,1.6454716981123674
2669,4763.11,4.321666226566732
2670,4764.56,2.597403670837555
2671,4765.48,3.068082849205503
2672,4766.54,1.8643336309153777
2673,4767.18,3.977822475991125
2674,4768.53,1.3763965267747347
2675,4769.02,4.440081967211734
2676,4770.54,6.442025835299963
2677,4772.79,0.749580718052349
2678,4773.05,4.23224043715847
2679,4774.55,2.0639906469207423
2680,4775.25,3.750892789011722
2681,4776.54,1.8868387669658349
2682,4777.19,4.212343995805146
2683,4778.61,1.295123325405875
2684,4779.06,4.475662431939773
2685,4780.65,1.0739371804239755
2686,4781.03,4.635669112067839
2687,4782.63,2.08224584460776
2688,4783.34,3.724580595282726
2689,4784.61,1.3710113546343838
2690,4785.07,5.339429440852458
2691,4786.91,0.5736455349353358
2692,4787.11,4.565159377317569
2693,4788.71,1.217771305559284
2694,4789.13,2.7009591607332073
2695,4790.07,1.9347384245354027
2696,4790.76,5.444275436792465
2697,4792.62,1.847935864358352
2698,4793.27,4.432669845051505
2699,4794.86,0.8859709939882705
2700,4795.18,4.459925144188644
2701,4796.75,1.9034315169368783
2702,4797.42,3.314952334392775
2703,4798.59,1.716810209264834
2704,4799.2,3.9758861465964963
2705,4800.59,1.8376047904174904
2706,4801.23,4.7914219830908875
2707,4802.87,0.6088351481388748
2708,4803.08,4.700836473248242
2709,4804.71,2.2261842277916286
2710,4805.46,3.1526678765877145
2711,4806.58,5.936066231812492
2712,4808.64,1.2161966364801358
2713,4809.08,4.993708966193662
2714,4810.84,0.8286329866269391
2715,4811.13,3.9704142159933062
2716,4812.51,2.596384839650351
2717,4813.43,3.096370235933128
2718,4814.53,1.9431578947376735
2719,4815.21,4.394418325736773
2720,4816.78,0.6640168574677133
2721,4817.01,4.618543689319532
2722,4818.58,1.2877705602605283
2723,4819.05,4.4437034777295
2724,4820.62,1.9129263870430042
2725,4821.3,4.0119402985064205
2726,4822.7,1.2212168792942513
2727,4823.13,5.040912898852909
2728,4824.9,0.5708740264577574
2729,4825.1,4.589722827777942
2730,4826.7,1.9674012474019433
2731,4827.42,2.413094148807172
2732,4828.28,2.2265407794315695
2733,4829.02,9.414601849086782
2734,4830.74,1.5408516281140863
2735,4831.22,3.972083585705223
2736,4832.63,2.129236545681475
2737,4833.37,3.6587758558127774
2738,4834.67,1.169329401204219
2739,4835.07,5.06578512396757
2740,4836.83,0.7361904761910942
2741,4837.09,4.365755395682028
2742,4838.65,1.1004687879533164
2743,4839.04,4.142180036742295
2744,4840.5,2.043742001535174
2745,4841.2,4.665507631056272
2746,4842.76,1.1997778348525343
2747,4843.17,4.0523584532126975
2748,4844.53,2.5647707149482137
2749,4845.39,4.4734372935112985
2750,4846.89,0.8336812144192304
2751,4847.19,4.403110811142988
2752,4848.74,1.8315270935971697
2753,4849.34,3.8754792043402704
2754,4850.72,1.123705465939023
2755,4851.13,4.3139087018549995
2756,4852.68,1.2700625162784547
2757,4853.11,4.4274215761298095
2758,4854.63,1.905957748292119
2759,4855.28,3.858671952429186
2760,4856.63,1.2552970651390774
2761,4857.08,4.691287785695697
2762,4858.73,1.2398432014997813
2763,4859.18,3.800581307942033
2764,4860.5,2.519638671875927
2765,4861.39,3.345882352939468
2766,4862.53,1.8550017686595577
2767,4863.2,4.507625899280469
2768,4864.74,1.1665772326577817
2769,4865.14,2.83817920959969
2770,4866.1,1.8724407753053003
2771,4866.77,5.136222910216718
2772,4868.52,2.008303400839493
2773,4869.21,4.169930264991729
2774,4870.73,0.7929855371913648
2775,4871.0,4.508411437649579
2776,4872.51,2.094422310756428
2777,4873.21,3.6334661499332874
2778,4874.5,8.304370447450573
2779,4875.0,37.166645962726726
2780,4876.53,14.598256513033963
2781,4877.0,46.59018036072145
2782,4878.5,13.126262626262626
2783,4879.0,478.72676300578695
2784,4895.01,44.836704545459405
2785,4897.02,73.26609625667531
2786,4900.5,10.4601593625498
2787,4901.0,31.71867549669785
2788,4902.52,10.096466165399852
2789,4903.03,29.23000000000934
2790,4904.51,9.666029962542511
2791,4905.0,39.51000000000429
2792,4907.01,36.88872659175815
2793,4908.88,1.0093951699071821
2794,4909.12,5.113264925372235
2795,4910.98,4.313397399661806
2796,4912.58,1.3575215988335312
2797,4913.11,3.8386759142514655
2798,4914.6,1.4439169735519617
2799,4915.14,4.396461159061776
2800,4916.87,0.5766201117319434
2801,4917.08,4.074892685976618
2802,4918.67,1.3671929824555313
2803,4919.16,4.0139358600584085
2804,4920.62,2.025857988166993
2805,4921.35,3.2406556276572918
2806,4922.56,2.1183539575051196
2807,4923.33,3.3498003629758166
2808,4924.57,2.3692418372995787
2809,4925.03,11.761903171952463
2810,4926.65,1.917715959005555
2811,4927.25,4.98126291618806
2812,4928.83,0.96034965035089
2813,4929.14,3.8545768025065406
2814,4930.33,2.764874401045101
2815,4931.2,4.344211576845762
2816,4932.65,1.9646860769983832
2817,4933.29,4.772899916828949
2818,4934.84,0.5235283515876357
2819,4935.01,4.887284398548477
2820,4936.59,2.124312638579699
2821,4937.28,4.770167495421772
2822,4938.89,0.7221540656191714
2823,4939.12,4.142209767814579
2824,4940.5,10.902219140083218
2825,4941.0,56.088313253020154
2826,4942.51,19.68158567774936
2827,4943.01,58.07227848100415
2828,4944.5,15.935019762859225
2829,4945.02,42.69181818179864
2830,4946.53,12.08449752883686
2831,4947.0,37.728738170340726
2832,4948.53,11.818582677177
2833,4949.01,36.76645768025079
2834,4950.51,11.346720827173675
2835,4951.0,32.49173553719008
2836,4952.5,10.631651842434536
2837,4953.03,30.548461538465954
2838,4954.54,8.499612756268842
2839,4955.01,27.126423690205012
2840,4956.51,9.272886597942113
2841,4957.02,26.55567928730512
2842,4958.52,7.316049822054141
2843,4959.03,20.966021220162784
2844,4960.5,7.601282051284565
2845,4961.05,21.18854039965554
2846,4962.56,6.011086082060009
2847,4963.02,18.357924528299197
2848,4964.51,5.724723926382819
2849,4965.02,17.394495538777903
2850,4966.56,6.096224648980416
2851,4967.04,19.3883385579993
2852,4968.56,6.240337078643227
2853,4969.07,18.13995594713919
2854,4970.58,5.716363636369269
2855,4971.06,17.36413943355163
2856,4972.52,5.950581395348837
2857,4973.02,17.627184115520883
2858,4974.51,6.085801749273743
2859,4975.02,17.71037463976945
2860,4976.52,12.16846153844608
2861,4977.15,6.059652855544541
2862,4978.54,2.934324563996255
2863,4979.08,9.88338129496202
2864,4980.69,1.8989381933487133
2865,4981.02,8.620559665484752
2866,4982.5,3.62524564183898
2867,4983.13,8.253880126180672
2868,4984.57,3.100050568899918
2869,4985.11,8.774575634199605
2870,4986.65,2.402225461617693
2871,4987.06,9.012605980937057
2872,4988.58,2.6551617118577964
2873,4989.03,8.848833172615848
2874,4990.55,3.601914893615182
2875,4991.12,8.757491166079802
2876,4992.51,3.517625899281739
2877,4993.06,9.804758497316406
2878,4994.6,2.7378807947024613
2879,4995.02,9.634144645336226
2880,4996.57,2.6186664404496858
2881,4997.0,9.159442755827058
2882,4998.51,3.2489903329766854
2883,4999.02,10.062525290367795
2884,5000.54,3.3029901423891466
2885,5001.05,9.165875251506202
2886,5002.57,2.971169686985173
2887,5003.07,8.862432432434236
2888,5004.5,3.8736978004467075
2889,5005.17,7.880839570453183
2890,5006.51,3.2227659574481877
2891,5007.02,10.507995642696367
2892,5008.65,2.2117021276618734
2893,5009.0,9.952018348622197
2894,5010.53,2.926445993032944
2895,5011.0,9.40109229174138
2896,5012.52,3.099158679444839
2897,5013.01,9.844684266858094
2898,5014.56,3.7723651744766538
2899,5015.16,8.464991516798737
2900,5016.55,3.6574672798014514
2901,5017.13,8.78514522821622
2902,5018.55,3.762043010753616
2903,5019.14,8.914722026742188
2904,5020.56,3.243915547022002
2905,5021.04,6.289226970151537
2906,5022.53,3.276183745585789
2907,5023.05,9.222702702699832
2908,5024.57,2.822204724409672
2909,5025.03,9.838928939240136
2910,5026.63,2.579371257487195
2911,5027.02,10.663109978147686
2912,5028.67,2.4423859881022394
2913,5029.08,8.840742705573117
2914,5030.56,3.610089020766737
2915,5031.11,9.393838771595304
2916,5032.5,3.983893805307596
2917,5033.11,8.414932614557237
2918,5034.5,3.2387173231118163
2919,5035.02,9.064471437949901
2920,5036.55,2.8214634146315802
2921,5037.03,9.096765578638907
2922,5038.56,3.1498044504354357
2923,5039.08,8.755136575616476
2924,5040.54,3.008361204013378
2925,5041.04,9.13772020725623
2926,5042.6,3.096011360050281
2927,5043.14,8.17118858954083
2928,5044.56,3.378791946305652
2929,5045.12,8.866154886709722
2930,5046.58,2.5385691573956253
2931,5047.02,9.328362720398442
2932,5048.65,2.095345744683029
2933,5049.0,9.11835937500107
2934,5050.55,3.4046753246748978
2935,5051.13,8.417952286281437
2936,5052.54,3.112040816327862
2937,5053.05,8.893531827514284
2938,5054.5,3.917569136225972
2939,5055.14,8.944831150929272
2940,5056.59,2.4926278360979977
2941,5057.0,9.115775688382783
2942,5058.51,3.0209917355358447
2943,5059.0,9.542437263665612
2944,5060.55,3.7403455354068185
2945,5061.16,7.782307692308538
2946,5062.5,3.64230200633534
2947,5063.08,8.929367262722401
2948,5064.53,3.3731279303440043
2949,5065.09,8.432709051046682
2950,5066.57,2.8794326725921273
2951,5067.04,8.908421052631368
2952,5068.58,2.5461417322851876
2953,5069.01,9.59032723772647
2954,5070.66,2.1002513696456777
2955,5071.02,8.996832298132322
2956,5072.61,2.4206351222614546
2957,5073.03,8.772032186813473
2958,5074.56,3.1155217523549394
2959,5075.12,7.996733104950903
2960,5076.53,2.7188038277526694
2961,5077.0,9.201952216282315
2962,5078.61,2.5482281628887953
2963,5079.06,8.69066339065931
2964,5080.61,2.004683963567788
2965,5081.0,8.321599558741855
2966,5082.62,2.667630922694712
2967,5083.09,8.668799755053069
2968,5084.64,2.4717853751151537
2969,5085.07,8.484282018115511
2970,5086.52,3.5568599033797335
2971,5087.13,7.87106302916337
2972,5088.51,3.4781579788903443
2973,5089.11,11.049277688606704
2974,5091.01,9.215309278350091
2975,5092.59,3.106539923954163
2976,5093.13,8.35329556185101
2977,5094.59,3.5168467475190575
2978,5095.13,9.258467153286556
2979,5096.56,3.414768592399025
2980,5097.15,8.269176365265295
2981,5098.66,1.9385022692909712
2982,5099.01,8.957933271548551
2983,5100.6,2.9052614281432114
2984,5101.13,8.277656684163212
2985,5102.6,2.2248175182461516
2986,5103.0,8.589374068552804
2987,5104.57,2.6398984302876722
2988,5105.04,8.182898550727252
2989,5106.52,3.4971428571396768
2990,5107.16,7.776646598433875
2991,5108.57,3.6934351145057067
2992,5109.21,8.360533117933851
2993,5110.64,2.0528380836864777
2994,5111.01,9.270024449876939
2995,5112.67,2.0957462686560984
2996,5113.04,8.191649175411094
2997,5114.53,2.79511254019568
2998,5115.01,9.34702163061259
2999,5116.57,5.20965065502568
3000,5117.26,7.770902255638296
3001,5118.67,2.6719186652781377
3002,5119.1,8.841193124368267
3003,5120.56,2.972211838003527
3004,5121.04,9.415894988066604
3005,5122.58,2.609790469755062
3006,5123.01,9.57241345202575
3007,5124.62,2.5461417322851876
3008,5125.05,9.034905166774166
3009,5126.58,2.679684361549962
3010,5127.0,9.720578158456627
3011,5128.53,2.9035519502949803
3012,5129.0,9.560154539602681
3013,5130.64,2.451602708804036
3014,5131.06,8.904749163876971
3015,5132.54,3.289043824702283
3016,5133.09,8.3128716528138
3017,5134.57,2.9991669443518827
3018,5135.07,9.128699080157473
3019,5136.61,2.9051158422053764
3020,5137.12,7.887488415202333
3021,5138.52,3.6789363722663597
3022,5139.16,7.6505623471876545
3023,5140.53,3.558802415297758
3024,5141.12,8.702417472489739
3025,5142.57,2.4861045584970602
3026,5143.0,9.388542199487858
3027,5144.62,2.4979705033681543
3028,5145.05,8.852941176470587
3029,5146.55,3.1321902210286314
3030,5147.07,8.532649006624254
3031,5148.5,2.9744308808973936
3032,5149.0,8.89625363960139
3033,5150.52,2.9108003857280615
3034,5151.02,9.32852124455902
3035,5152.57,3.0571087623593587
3036,5153.07,8.815391127671203
3037,5154.52,4.113086850365329
3038,5155.18,8.507895102465458
3039,5156.55,3.520182494085398
3040,5157.13,8.635828493336998
3041,5158.54,3.230251183108846
3042,5159.04,9.914159228849384
3043,5160.6,2.540563681767222
3044,5161.0,8.863279653141745
3045,5162.57,3.4086278586289853
3046,5163.12,9.192969028122734
3047,5164.57,3.0075514201775846
3048,5165.08,8.652222222223983
3049,5166.51,3.439020703252937
3050,5167.09,8.333076923076064
3051,5168.5,3.246959790782375
3052,5169.05,9.199566310494674
3053,5170.66,2.0829629629623483
3054,5171.03,9.136238787503252
3055,5172.65,2.5989793915633617
3056,5173.09,8.53007812499893
3057,5174.54,2.990544747082992
3058,5175.05,9.2675098814199
3059,5176.61,2.6711138161925283
3060,5177.09,7.91851508120416
3061,5178.57,2.447909948283941
3062,5179.01,8.265144646586343
3063,5180.52,3.671792114690755
3064,5181.19,7.762249388754885
3065,5182.58,2.6602551020410266
3066,5183.04,8.7086049421318
3067,5184.57,2.8652955665036894
3068,5185.08,9.233106060604182
3069,5186.69,2.3504557640770405
3070,5187.08,8.756302851526888
3071,5188.56,2.587428752373875
3072,5189.01,8.682857142856939
3073,5190.55,2.943801295896561
3074,5191.01,9.727981005980741
3075,5192.56,3.017623363544814
3076,5193.06,8.205234777337779
3077,5194.54,3.103648429911102
3078,5195.07,8.373569192236893
3079,5196.54,3.56829291949372
3080,5197.15,8.570479360853941
3081,5198.58,2.7975008253564186
3082,5199.05,9.233927492445595
3083,5200.58,11.551178731581052
3084,5202.57,2.4861045584970602
3085,5203.0,9.682540489045818
3086,5204.68,2.0337716484894526
3087,5205.03,8.631665626951948
3088,5206.55,3.6073156899817214
3089,5207.18,7.977619047615597
3090,5208.61,2.654765100674214
3091,5209.05,9.504636118596622
3092,5210.62,2.313514246947747
3093,5211.0,9.916008316010569
3094,5212.6,3.742212389378864
3095,5213.09,6.744564619612934
3096,5214.61,2.4744511581113584
3097,5215.02,9.575951417003608
3098,5216.6,2.5512584573752726
3099,5217.02,9.931203235587983
3100,5218.66,2.4484807101433197
3101,5219.06,9.157238421954062
3102,5220.55,3.0676730190584847
3103,5221.06,9.05459016393292
3104,5222.59,2.885307557117979
3105,5223.05,9.587706685837528
3106,5224.55,3.348844621510899
3107,5225.11,8.258181818184738
3108,5226.55,2.9659078080876133
3109,5227.07,8.391581569118497
3110,5228.55,3.557046490425206
3111,5229.19,8.283967861558914
3112,5230.66,2.193766937669377
3113,5231.16,5.951226993866634
3114,5232.51,2.408263027296316
3115,5233.02,7.839544592027376
3116,5234.74,1.7706776138029028
3117,5235.17,5.431856287423843
3118,5236.53,2.385522898154316
3119,5237.07,6.837549123179054
3120,5238.71,1.2273406983641806
3121,5239.02,6.0756117718174165
3122,5240.53,2.820067915210972
3123,5241.22,5.531779141102962
3124,5242.58,1.7186647209049153
3125,5243.04,5.633296049072518
3126,5244.56,1.6757127292529996
3127,5245.01,5.669755374351371
3128,5246.51,2.297331227792842
3129,5247.09,6.188006900749934
3130,5248.62,1.7569660460031427
3131,5249.09,5.318687454678384
3132,5250.52,3.2459576093153597
3133,5251.36,4.728372093025891
3134,5252.6,1.6017672944889498
3135,5253.04,5.474642044460795
3136,5254.55,3.661718602451816
3137,5255.19,8.394541241894533
3138,5256.68,1.3380836804914473
3139,5257.04,5.16277136258793
3140,5258.6,1.6073151750958143
3141,5259.04,6.173205629396823
3142,5260.61,2.011776955116626
3143,5261.06,7.005136884019835
3144,5262.54,3.5616524437571564
3145,5263.27,5.314923836083761
3146,5264.53,2.297458563537087
3147,5265.17,6.192600422832318
3148,5266.87,0.5648582995946281
3149,5267.03,5.647879074162528
3150,5268.71,1.8383164593575942
3151,5269.29,4.044976958524541
3152,5270.57,2.010178690492284
3153,5271.24,3.932908163266366
3154,5272.59,1.991395699734794
3155,5273.28,3.3533743814030617
3156,5274.51,1.8394205259485357
3157,5275.18,4.179416617558488
3158,5276.69,1.8946791385693018
3159,5277.41,3.6037370242206586
3160,5278.73,4.57562733420969
3161,5280.55,2.0251619213202083
3162,5281.32,3.4989174560221405
3163,5282.62,2.149415006358438
3164,5283.45,1.9442578283866248
3165,5284.22,1.3965794637010949
3166,5284.75,4.805614690320851
3167,5286.63,1.9538682550806885
3168,5287.34,4.446819886294702
3169,5288.92,0.4455859169721195
3170,5289.07,5.416056581220483
3171,5290.88,0.43635901778256153
3172,5291.02,5.688248847923968
3173,5292.82,1.2019083255398293
3174,5293.18,5.679282970550824
3175,5294.85,1.48454883406582
3176,5295.27,4.934802011311441
3177,5296.74,1.7320005436278645
3178,5297.31,3.4681572481553866
3179,5298.53,2.003952747544683
3180,5299.2,5.246781156453213
3181,5300.76,1.2894478298713854
3182,5301.21,4.538290710122821
3183,5302.84,0.6322385449445852
3184,5303.07,4.0684494693143005
3185,5304.56,1.2590318970323813
3186,5305.03,5.240650294016111
3187,5306.95,0.5393665158366134
3188,5307.15,4.1005677290845
3189,5308.58,3.101290322584235
3190,5309.02,9.998751229102842
3191,5310.71,1.404855360180231
3192,5311.23,3.819022982247859
3193,5312.68,1.6042104056845579
3194,5313.27,3.9496757899665758
3195,5314.7,1.478197698601207
3196,5315.18,4.394476751976526
3197,5316.64,2.0378705636738723
3198,5317.3,4.267777777777152
3199,5318.79,1.4011183923097785
3200,5319.23,4.4087529509799275
3201,5320.66,1.8663146609484789
3202,5321.28,3.925541548752677
3203,5322.62,1.5281875091003558
3204,5323.1,5.142689347913585
3205,5324.8,0.5977400295422011
3206,5325.01,4.677488470647203
3207,5326.64,2.128184383818072
3208,5327.41,3.3347951299462486
3209,5328.62,1.9257534246576329
3210,5329.33,2.3164471525666066
3211,5330.17,1.5642742391671303
3212,5330.75,3.549544140951689
3213,5332.23,2.0385337726535444
3214,5333.0,4.19030527693017
3215,5334.59,1.2191233662741703
3216,5335.06,4.140118956672811
3217,5336.63,1.407483443707933
3218,5337.16,4.760526315789955
3219,5338.96,0.6395117079119697
3220,5339.2,3.5833035714289605
3221,5340.54,1.317899461400923
3222,5341.05,3.8922817604815694
3223,5342.57,1.270574334737491
3224,5343.07,3.926607824980838
3225,5344.505,1.5584444671706477
3226,5345.12,4.889074315515599
3227,5346.88,0.7802991944757001
3228,5347.2,4.648207366403994
3229,5348.99,1.283393782382848
3230,5349.48,3.1748771266554234
3231,5350.67,1.4420044543428874
3232,5351.21,5.015225225225123
3233,5353.0,0.7067047660136507
3234,5353.27,1.2856260772566983
3235,5353.78,2.4846783260468737
3236,5354.75,5.29784574468027
3237,5356.74,1.870430004778034
3238,5357.41,3.3855719557210064
3239,5358.6,2.40137778783948
3240,5359.49,3.197124313531341
3241,5360.77,1.3544087491455912
3242,5361.27,3.5255479157699545
3243,5362.62,1.3836701697660194
3244,5363.17,3.4974457165412893
3245,5364.58,1.3348969578016767
3246,5365.12,3.594586686175505
3247,5366.52,1.323896254717805
3248,5367.06,3.9720807833529967
3249,5368.63,1.2003686635933783
3250,5369.07,5.242956782199629
3251,5370.74,1.766203331419987
3252,5371.3,4.801111111110408
3253,5372.79,1.8375665399252674
3254,5373.35,4.874325134973006
3255,5374.85,0.5816064257008129
3256,5375.03,4.789954671735634
3257,5376.53,1.9568521031219464
3258,5377.13,4.560226500566365
3259,5378.59,1.8790891443927757
3260,5379.17,4.456237182345426
3261,5380.55,1.9552476669056142
3262,5381.17,4.417241379309197
3263,5382.57,2.098772459850163
3264,5383.19,4.588592254455358
3265,5384.62,1.6737629276066057
3266,5385.18,4.429205646276101
3267,5386.62,2.0702564102559537
3268,5387.28,4.97869783217873
3269,5388.83,0.827928089269833
3270,5389.1,5.37159416222149
3271,5390.83,0.9177056277055126
3272,5391.12,5.350575962386363
3273,5392.79,0.7751568306816199
3274,5393.03,5.851830985915832
3275,5394.91,0.5765339991197456
3276,5395.09,5.002806968248491
3277,5396.7,2.0629790535295047
3278,5397.32,3.808705979839162
3279,5398.56,1.7877577551798873
3280,5399.17,2.5583216783219953
3281,5400.05,2.0484011814557412
3282,5400.75,5.500547607302261
3283,5402.68,1.3177207867329805
3284,5403.13,4.702650602409527
3285,5404.67,2.459999999999127
3286,5405.08,7.022837942623316
3287,5406.52,2.1269771154843458
3288,5407.23,4.051647974668577
3289,5408.59,2.094341926728772
3290,5409.28,4.358310182389689
3291,5410.83,0.7086594911937377
3292,5411.08,4.557442528735937
3293,5412.71,5.158297567955235
3294,5414.56,1.35503113324966
3295,5415.09,4.663824701194947
3296,5416.96,0.6173584905654763
3297,5417.2,3.87064252932113
3298,5418.73,1.4071701546872595
3299,5419.25,3.9907234626428263
3300,5420.64,1.4865635904216175
3301,5421.17,4.032118074090363
3302,5422.72,0.7948800834189234
3303,5423.03,4.1911560693645455
3304,5424.62,1.2581856187285365
3305,5425.11,3.7915368596430277
3306,5426.59,2.337861679604799
3307,5427.34,4.284414949352426
3308,5428.9,0.7445929564216853
3309,5429.19,3.8173121869790743
3310,5430.62,2.096394917947039
3311,5431.43,2.993007271640148
3312,5432.63,1.9597331356553458
3313,5433.45,3.1565079365085955
3314,5434.67,2.1689253935665436
3315,5435.47,3.5188544006519877
3316,5436.86,0.5938779121220289
3317,5437.1,2.5564283173249978
3318,5438.02,2.1251059753303627
3319,5438.78,4.202955974844566
3320,5440.31,1.889616136483617
3321,5441.12,2.9678692493947625
3322,5442.33,1.886173773281033
3323,5443.11,3.5405624168725947
3324,5444.57,1.218924103420038
3325,5445.08,3.9717636022505314
3326,5446.73,1.6661364234934215
3327,5447.29,4.5903103129538065
3328,5448.83,0.7867793798660163
3329,5449.1,4.768996160173978
3330,5450.66,1.8886597938155782
3331,5451.26,4.493239063189288
3332,5452.66,1.736158038147882
3333,5453.17,5.867072755152907
3334,5454.82,0.9928072153334151
3335,5455.08,5.95340909090979
3336,5456.63,2.498808109051329
3337,5457.32,5.478934499377877
3338,5458.81,0.9420761505020553
3339,5459.1,6.051766286095748
3340,5460.82,0.7069805060155558
3341,5461.05,4.694256149941859
3342,5462.64,1.3389757179816177
3343,5463.11,4.1596050828474835
3344,5464.56,1.8905489434030311
3345,5465.23,1.4741483104625381
3346,5465.77,3.560083449233056
3347,5467.07,4.18256588072301
3348,5468.6,1.180701900981919
3349,5469.06,4.989627307557544
3350,5470.88,0.6145318352054336
3351,5471.12,4.584550628410337
3352,5472.77,0.7285262708237714
3353,5473.05,4.870968592137437
3354,5474.89,0.7772311827956014
3355,5475.18,4.604669081329682
3356,5476.92,0.6623937267855333
3357,5477.18,4.156727388940736
3358,5478.78,1.0163323782241118
3359,5479.08,5.922053422372403
3360,5480.77,4.756592022392082
3361,5482.5,1.9028987068968815
3362,5483.13,4.816820540835615
3363,5484.71,1.7072146118705935
3364,5485.23,4.305085529357977
3365,5486.53,2.243698156682143
3366,5487.24,4.125287492592508
3367,5488.52,2.0962077378875033
3368,5489.1,4.703309934379165
3369,5490.53,1.8591030003106388
3370,5491.09,5.821541429359493
3371,5492.64,1.634999999997784
3372,5493.15,4.9748921523641885
3373,5494.66,1.3797520661151448
3374,5495.11,4.451791483114823
3375,5496.68,1.684826735579972
3376,5497.29,3.719976571652343
3377,5498.55,2.7290909090895155
3378,5499.12,10.284034560482048
3379,5500.67,1.3211301464501897
3380,5501.1,4.776372745488686
3381,5502.69,2.0498738667732903
3382,5503.38,4.253157516181846
3383,5504.9,0.7489356040447046
3384,5505.15,4.497141589555604
3385,5506.7,2.016412918109908
3386,5507.39,3.4086674742581278
3387,5508.6,1.7281886193591174
3388,5509.24,3.9793225576428353
3389,5510.67,1.0258733160006428
3390,5511.04,4.7943350477578655
3391,5512.73,1.4101123885816762
3392,5513.21,4.829606299213435
3393,5514.89,0.44255238992189555
3394,5515.05,4.093160995551383
3395,5516.51,2.1154234953850835
3396,5517.2,5.229734167319507
3397,5518.97,0.5307972213028583
3398,5519.17,4.215268924303519
3399,5520.64,1.2233844729528789
3400,5521.05,4.827497360084152
3401,5522.67,1.1730272952849434
3402,5523.08,4.3638659392063825
3403,5524.56,2.203221188259986
3404,5525.26,4.61017048726996
3405,5526.95,0.6070967741942511
3406,5527.17,4.90061384725257
3407,5528.93,0.5458567011409412
3408,5529.14,3.765837961448878
3409,5530.57,1.8791389114537713
3410,5531.19,4.876482017362992
3411,5532.78,0.913477139171449
3412,5533.07,4.602362869199783
3413,5534.55,1.9276831345815446
3414,5535.2,4.51156407669137
3415,5536.76,1.0652559726967017
3416,5537.1,5.717735517846577
3417,5538.89,0.704723854286974
3418,5539.11,4.494339268978745
3419,5540.74,0.7972294776118403
3420,5541.03,4.570115440115746
3421,5542.66,2.2119533218399523
3422,5543.4,4.138845315904856
3423,5544.87,0.6240882103471848
3424,5545.07,4.940044532411049
3425,5546.8,5.075133689838601
3426,5548.7,1.8072940085753346
3427,5549.36,3.6016317123778108
3428,5550.68,1.3364291661698324
3429,5551.16,4.342237762237562
3430,5552.74,1.474130465746419
3431,5553.21,4.541270616982644
3432,5554.59,1.7098279134510102
3433,5555.18,4.4728598665375685
3434,5556.65,1.8712706837353368
3435,5557.21,4.836268099018544
3436,5558.66,1.7920512820520489
3437,5559.17,4.834845725846858
3438,5560.54,1.7385209571229536
3439,5561.05,5.112136779579387
3440,5562.55,2.3959144770739336
3441,5563.22,5.686029106028844
3442,5564.8,2.1401003344470118
3443,5565.41,3.890985199580813
3444,5566.61,1.3079093507562956
3445,5567.04,5.097593249184854
3446,5568.67,1.7401546872914206
3447,5569.25,5.0068363215729335
3448,5570.83,0.5722546221610381
3449,5571.03,5.323643912565946
3450,5572.91,0.588287498498961
3451,5573.12,3.9728987993154425
3452,5574.52,2.327106133874188
3453,5575.32,3.787754127711452
3454,5576.84,0.5762364841298522
3455,5577.05,4.606282847586179
3456,5578.7,0.8670376206430127
3457,5579.05,3.8986656557990553
3458,5580.66,1.16667759115126
3459,5581.12,2.844853477827381
3460,5582.19,1.5178031691301404
3461,5582.77,4.336239928379044
3462,5584.51,2.1160128464381
3463,5585.27,4.5880616078132
3464,5586.68,1.3933769063184265
3465,5587.27,2.8193442622936042
3466,5588.45,0.7489691305588825
3467,5588.76,4.025208725084794
3468,5590.43,0.7816716360481493
3469,5590.75,3.596531005883543
3470,5592.22,1.4249883449881662
3471,5592.8,4.262606882169454
3472,5594.56,2.3970251603322223
3473,5595.07,6.930847212165098
3474,5596.57,2.1743217197928155
3475,5597.41,2.148453855375006
3476,5598.27,2.820267251693256
3477,5599.4,2.8427030118187053
3478,5600.57,1.9349212598433478
3479,5601.25,4.304786868557072
3480,5602.73,4.458573040045998
3481,5604.58,1.9350837459180448
3482,5605.33,3.3024602259627462
3483,5606.54,5.245816613539047
3484,5608.72,5.012653143201446
3485,5610.72,4.961799129288621
3486,5612.69,1.4280605196797636
3487,5613.23,3.6949236338973956
3488,5614.6,1.2788572739771076
3489,5615.07,4.711761308951731
3490,5616.75,1.9608069164260036
3491,5617.45,3.3828720220281157
3492,5618.66,1.187498895271413
3493,5619.03,5.992924791087924
3494,5620.97,1.4293280632410104
3495,5621.51,2.7042605997918754
3496,5622.57,1.38269662921339
3497,5623.11,3.9024451410669516
3498,5624.63,1.3989761496910993
3499,5625.1,5.613152498931967
3500,5626.89,0.7133634004695416
3501,5627.14,4.199588386621326
3502,5628.62,1.3868010075580415
3503,5629.1,4.46134485349152
3504,5630.65,1.9509815950931306
3505,5631.42,3.6951409618582503
3506,5632.81,0.5897872562299786
3507,5633.04,4.094588859416257
3508,5634.62,2.050634231102719
3509,5635.4,2.9263181402922536
3510,5636.56,2.09039303434052
3511,5637.41,2.9403182496277767
3512,5638.59,1.284211686879737
3513,5639.13,3.9511710606976678
3514,5640.69,1.7662563172227892
3515,5641.29,4.057831858406185
3516,5642.61,6.000440314332462
3517,5644.7,1.4752999723542324
3518,5645.18,4.383968547639119
3519,5646.65,1.9571413934428354
3520,5647.32,3.957071928709523
3521,5648.68,1.3013608096574618
3522,5649.14,4.455193213948199
3523,5650.75,0.7463024814783324
3524,5651.02,4.943189755527687
3525,5652.82,0.524968503149776
3526,5653.03,3.9035152729103655
3527,5654.59,2.059871412404836
3528,5655.4,3.00282990891958
3529,5656.56,1.457221950022611
3530,5657.15,3.8400000000003516
3531,5658.74,0.9416345658664438
3532,5659.11,4.408272552783746
3533,5660.62,2.34419711130159
3534,5661.18,6.3079042419131985
3535,5662.7,1.2145533532462944
3536,5663.1,5.218948995362468
3537,5664.88,0.5392647058812172
3538,5665.07,2.7182050372485627
3539,5666.05,1.9059262662220842
3540,5666.75,4.825587524457399
3541,5668.52,2.654533421575116
3542,5669.52,2.9594146457995576
3543,5670.58,1.3946106773579985
3544,5671.12,3.6289864790587414
3545,5672.49,1.5599350521553579
3546,5673.12,4.433256093892156
3547,5674.89,0.6852535165176418
3548,5675.15,4.256875602701788
3549,5676.89,0.7677431906613095
3550,5677.22,3.636760563378617
3551,5678.73,1.2352559726967745
3552,5679.24,3.4805771861043686
3553,5680.71,1.436403978577248
3554,5681.3,3.0059168351129957
3555,5682.53,1.4226691042056157
3556,5683.13,1.5801598661582164
3557,5683.79,2.275188601698871
3558,5684.75,4.980282850589424
3559,5686.94,0.5512290502804631
3560,5687.17,4.171168831169213
3561,5688.76,0.8588505296193509
3562,5689.05,3.0726760563381443
3563,5690.01,5.074912944740292
3564,5690.77,9.839196234610963
3565,5692.3,1.7309951107277275
3566,5693.01,3.5812135787623722
3567,5694.51,2.546792452829627
3568,5695.17,5.5665066566661805
3569,5696.63,6.2727740492158555
3570,5698.82,0.47116790682703164
3571,5699.0,4.35617954071021
3572,5700.59,1.4032888264217735
3573,5701.15,3.962345132745201
3574,5702.64,1.3032558637678053
3575,5703.14,4.246439482959605
3576,5704.86,0.6627844050054359
3577,5705.13,4.174270410048024
3578,5706.88,4.976298984034209
3579,5708.91,0.5932583039300212
3580,5709.12,5.155110909326762
3581,5710.87,0.6491839054324626
3582,5711.11,4.250865971973912
3583,5712.63,1.7247901620139967
3584,5713.33,3.1431418703988103
3585,5714.66,1.9403206120769139
3586,5715.48,2.66229617304716
3587,5716.52,0.805617977526136
3588,5716.82,4.491995661605301
3589,5718.53,0.7899256889266055
3590,5718.84,4.3030128858815875
3591,5720.64,1.5975876956278525
3592,5721.25,4.3531336771122575
3593,5723.0,0.5931961259068644
3594,5723.23,4.016986872901558
3595,5724.82,0.6650264825013372
3596,5725.08,2.888466257669541
3597,5726.22,2.2447797848574726
3598,5727.11,3.597172871360638
3599,5728.62,2.10778810585196
3600,5729.49,2.409141093155198
3601,5730.51,1.7729848229338416
3602,5731.17,4.392983870966375
3603,5732.69,1.3474870363005431
3604,5733.14,4.183362740010594
3605,5734.56,1.4297455653101088
3606,5735.17,2.7747868453115143
3607,5736.27,1.9216309102270361
3608,5737.02,4.5704577199957015
3609,5738.77,1.0745350908422782
3610,5739.23,3.385867602809115
3611,5740.66,4.8609780587572935
3612,5742.69,4.274406548433369
3613,5744.27,4.930188679244003
3614,5746.37,2.1719790301453443
3615,5747.31,3.280357269189616
3616,5748.72,4.271136406045294
3617,5750.5,1.5963597161088496
3618,5751.18,4.146277820413984
3619,5752.88,3.1968871595335213
3620,5754.18,2.0923699182779374
3621,5755.0,4.757062937062177
3622,5756.82,1.3144878626422398
3623,5757.35,2.788123641422569
3624,5758.56,2.0065714836959887
3625,5759.38,2.953447001989818
3626,5760.6,2.0071237009721754
3627,5761.35,2.337832512314381
3628,5762.21,1.373161900843355
3629,5762.75,4.514452634725572
3630,5764.56,5.041054232133806
3631,5766.56,2.073259436788314
3632,5767.39,3.2115921136309806
3633,5768.63,2.056334781154768
3634,5769.4,3.461466580144386
3635,5770.72,4.19975442302496
3636,5772.53,1.556937799044006
3637,5773.13,2.702585067561264
3638,5774.22,1.3264335804441632
3639,5774.75,3.898464982411257
3640,5776.25,2.062826086956879
3641,5777.09,4.016918429001651
3642,5778.69,1.384894127464181
3643,5779.23,3.352538860105342
3644,5780.51,1.904766655937065
3645,5781.24,3.9144404973352978
3646,5782.65,2.2154815548415074
3647,5783.12,6.586141159350325
3648,5784.54,1.725358518246973
3649,5785.0,11.963693940430243
3650,5786.95,3.8627971489113997
3651,5788.53,2.558681672025723
3652,5789.28,4.8739454094311805
3653,5790.68,1.26286127167579
3654,5791.13,4.254836272039437
3655,5792.74,1.144526046115757
3656,5793.18,3.5606986899548922
3657,5794.53,1.4754156261167
3658,5795.06,4.266766917291839
3659,5796.62,5.018057990559237
3660,5798.28,2.2355683547064555
3661,5799.13,3.6535683541699213
3662,5800.57,1.8006844106459907
3663,5801.23,4.580595611285686
3664,5802.82,1.760112413298559
3665,5803.45,3.7347937671867144
3666,5804.71,1.5118413597744516
3667,5805.27,4.387724203293247
3668,5806.85,0.6141702634307649
3669,5807.04,5.1386431104703405
3670,5808.77,1.7986204208875771
3671,5809.38,3.6264151188453164
3672,5810.61,1.6073342996441136
3673,5811.15,5.296216824111916
3674,5812.78,1.2861204013372727
3675,5813.23,4.059144676979072
3676,5814.73,1.3010567514692162
3677,5815.17,4.005092024539464
3678,5816.58,6.081709392142668
3679,5818.85,0.5167029231817304
3680,5819.02,4.296563245823288
3681,5820.56,1.7741048969738868
3682,5821.15,4.612241555782797
3683,5822.73,1.5206706408353992
3684,5823.2,4.533684210526428
3685,5824.66,1.7415940143140276
3686,5825.25,4.172241521917938
3687,5826.61,2.5050446654307708
3688,5827.32,3.867782984331644
3689,5828.53,2.399904306219673
3690,5829.15,5.7310212448759685
3691,5830.66,1.8994309641392364
3692,5831.11,7.688727101929077
3693,5832.81,1.2547982062752072
3694,5833.15,5.722309990044288
3695,5834.79,1.229276373147867
3696,5835.13,4.552177982468702
3697,5836.54,1.5913615396859266
3698,5837.01,4.983617651203714
3699,5838.61,1.6020059582920831
3700,5839.07,5.678993135012898
3701,5840.63,2.694348798211429
3702,5841.34,5.168237159162107
3703,5842.87,0.5419831290779729
3704,5843.03,5.787203962181328
3705,5844.81,1.2833333333313326
3706,5845.16,5.38879029337129
3707,5846.61,2.225457453617593
3708,5847.14,6.601349693251378
3709,5848.68,1.863831553971306
3710,5849.15,6.299779005525019
3711,5850.61,2.3900497512470418
3712,5851.01,8.720705031635633
3713,5852.59,2.2029002153605237
3714,5853.07,7.190525059668704
3715,5854.64,1.642643889015796
3716,5855.01,7.831015169193884
3717,5856.75,2.241160896131306
3718,5857.26,5.795085049238716
3719,5858.59,2.1733601070950472
3720,5859.09,7.763146360552734
3721,5860.67,2.1363851283077224
3722,5861.2,5.448497109826292
3723,5862.53,2.9148148148165824
3724,5863.13,5.447029967550497
3725,5864.54,1.9907963674473925
3726,5865.09,5.195923515053639
3727,5866.6,1.4270332480820884
3728,5867.02,5.379379402884042
3729,5868.55,3.1741964285695303
3730,5869.28,4.403910849453322
3731,5870.53,1.646516464472786
3732,5871.05,5.855981922759502
3733,5872.74,1.283605209047515
3734,5873.16,3.939347181009214
3735,5874.54,2.486492483893944
3736,5875.33,4.311583011583615
3737,5876.63,1.20120030876067
3738,5877.04,5.25059779758913
3739,5878.81,1.281383175267372
3740,5879.26,3.9764113326342203
3741,5880.6,2.3399845001270374
3742,5881.08,8.995089192028365
3743,5882.52,3.3978282102813107
3744,5883.16,8.208385188997074
3745,5884.85,0.5246248679101313
3746,5885.04,4.949259968867225
3747,5886.81,1.400886469671315
3748,5887.2,4.772304844185582
3749,5888.64,1.3472428271512542
3750,5889.13,3.862187829756295
3751,5890.53,1.8466536018398483
3752,5891.14,3.0836061820249574
3753,5892.12,1.901699636657576
3754,5892.75,5.649443969205019
3755,5894.55,1.6139691444585602
3756,5895.07,6.900045495906726
3757,5896.92,0.6413778904009297
3758,5897.11,4.94761138614091
3759,5898.6,1.5592984560021794
3760,5899.08,5.386647177052883
3761,5900.52,2.3520805369125934
3762,5901.06,7.084931902598295
3763,5902.79,1.0831534980862816
3764,5903.09,5.475967485421453
3765,5904.59,1.8890821256048884
3766,5905.06,6.3036507936479085
3767,5906.57,2.036741889989189
3768,5907.02,6.013540621865597
3769,5908.52,1.6899999999992472
3770,5909.01,5.194010606562051
3771,5910.5,2.179501579502901
3772,5911.1,6.0406160235312605
3773,5912.78,1.2264940031293272
3774,5913.12,5.783976022335611
3775,5914.79,1.2215188257806378
3776,5915.15,4.725670824461666
3777,5916.59,1.297070861757151
3778,5917.01,5.897351194586607
3779,5918.93,0.3154553289267474
3780,5919.03,5.220552995391465
3781,5920.61,1.890318262532108
3782,5921.23,4.3757327307960905
3783,5922.72,1.338742593811177
3784,5923.17,4.495763248089235
3785,5924.68,2.203006012023476
3786,5925.38,3.9878737010389504
3787,5926.71,1.6431797629229272
3788,5927.29,4.460915909988156
3789,5928.79,0.8140623320808434
3790,5929.06,4.920781022861344
3791,5930.71,1.1388869657838447
3792,5931.09,4.314525025534989
3793,5932.57,2.627881355932529
3794,5933.45,3.431065292096678
3795,5934.54,1.8521212121221595
3796,5935.18,4.706106172212028
3797,5936.8,0.6946372450691222
3798,5937.06,4.035268192688169
3799,5938.55,2.006436170212984
3800,5939.22,4.191711836631265
3801,5940.67,1.0858241758237903
3802,5941.08,4.663258268826176
3803,5942.77,5.156467486818681
3804,5944.64,2.0180769230750877
3805,5945.36,3.3064950263331925
3806,5946.56,1.9206463613108236
3807,5947.26,2.0042369020495228
3808,5948.0,2.8583937521854694
3809,5949.04,4.813421052630809
3810,5950.86,0.7223592175465461
3811,5951.12,4.10194401795336
3812,5952.6,1.1467463051433668
3813,5953.03,4.557033158812864
3814,5954.69,2.2986886474340182
3815,5955.49,3.074503526858574
3816,5956.66,1.193855992421462
3817,5957.09,4.515296200141912
3818,5958.72,1.8130398322847154
3819,5959.38,4.239228791773678
3820,5960.92,0.5395668549906774
3821,5961.13,3.7140226171245843
3822,5962.55,1.4969482884203305
3823,5963.02,4.366765023388282
3824,5964.58,1.2840783898313775
3825,5965.01,4.731498187675321
3826,5966.58,2.190418736692121
3827,5967.28,5.047233134075266
3828,5968.89,0.4361082910303357
3829,5969.03,4.955625680087383
3830,5970.66,1.9100436681234287
3831,5971.26,4.0593038064247935
3832,5972.56,1.542706960755543
3833,5973.05,6.486591478694829
3834,5974.9,0.7092512972580485
3835,5975.12,4.73608682898362
3836,5976.6,4.670221300132265
3837,5977.19,12.987439275424856
3838,5979.0,0.40235080278666835
3839,5979.16,4.406807604064433
3840,5980.83,1.097884130982683
3841,5981.21,4.042809355452594
3842,5982.54,1.8129132141290352
3843,5983.11,5.007155025554802
3844,5984.71,1.807426636568622
3845,5985.29,3.7224584717609095
3846,5986.5,15.1484375
3847,5987.0,52.29951002228674
3848,5988.52,12.22551386622053
3849,5989.0,34.44289897510981
3850,5990.5,11.838677098145093
3851,5991.03,32.577348066298335
3852,5992.53,10.222895805152156
3853,5993.01,32.15952638701411
3854,5994.52,10.144429530192117
3855,5995.0,31.580213903743317
3856,5996.5,10.02820788529984
3857,5997.03,27.75321974149349
3858,5998.52,8.569887640441644
3859,5999.0,27.79318385650937
3860,6000.56,105.89400895856339
3861,6006.51,8.824084350721423
3862,6007.01,26.760836120405205
3863,6008.52,8.972389380518813
3864,6009.03,26.32333333334555
3865,6010.52,44.036162402665774
3866,6013.01,43.213036649218616
3867,6014.6,4.336404494382365
3868,6015.06,11.248196721310066
3869,6016.8,0.6705263157895899
3870,6017.01,5.01051868442627
3871,6018.82,0.6459997744464303
3872,6019.06,4.518454827229543
3873,6020.72,4.900158693385746
3874,6022.51,1.5450582362726848
3875,6023.09,5.03563552672883
3876,6025.05,4.846443123938597
3877,6026.92,0.9048491575009427
