,BIT_DEPTH,cost
0,146.3,3004.54
1,150.84,316.9951937984496
2,187.06,24.82969325153367
3,190.54,793.1206508875744
4,270.85,37.7716151522192
5,279.27,3.8328480509150693
6,280.04,82.60550584996544
7,298.64,107.24444234404532
8,330.53,1.6050472373319569
9,331.04,36.37866359447001
10,342.05,3.9499569352233737
11,343.12,12.51811400422237
12,346.56,9.787805642633273
13,348.55,25.158050314465378
14,354.62,16.116187806586986
15,356.02,42.97193731243763
16,363.18,23.982038420490387
17,364.59,10.49209492635044
18,366.06,6.834782608695541
19,367.46,12.820657785179074
20,370.57,10.613543249203541
21,372.84,12.270220679395099
22,375.44,15.526292721106305
23,378.6,8.871872320152445
24,380.54,6.724422864709786
25,382.1,7.7471260997066285
26,384.07,8.060555121188472
27,386.12,3.516283573908269
28,387.06,6.09410103204775
29,388.7,6.644735311227413
30,390.4,2.947496962333002
31,391.13,5.702908366533891
32,392.56,8.057670807453425
33,394.62,12.998043315907454
34,398.04,4.70740452065467
35,399.24,3.024584197623847
36,400.03,4.073508740313654
37,401.13,11.082876283278207
38,404.2,3.2849865396562903
39,405.0,6.350495626822242
40,406.54,3.8246100519929707
41,407.44,10.383960880195609
42,410.0,18.865854145854257
43,414.72,7.032805155420712
44,416.55,1.736694624475747
45,417.0,5.8757292882147025
46,418.5,6.363941695750368
47,420.06,19.192618774386016
48,424.38,14.941601903251351
49,428.14,4.217538683722012
50,429.17,1.9343589743588883
51,429.63,6.2364449291165975
52,431.09,5.272083243008926
53,432.33,5.981027837259168
54,433.75,7.596445012787733
55,435.56,13.16081865778199
56,438.44,2.685368248772606
57,439.1,5.538746551044452
58,440.5,8.353704994192746
59,442.64,1.8001320132013885
60,443.12,3.4214792678370447
61,444.02,11.345035460993245
62,445.17,2.9885085283618085
63,445.6,7.934491978609626
64,446.85,8.105425772418936
65,448.55,2.6157258064515214
66,449.2,12.498206882672626
67,452.31,9.496721311475493
68,453.61,6.185718776793154
69,454.78,5.942021903959787
70,455.92,11.584659188956033
71,458.1,4.081552267766169
72,458.98,7.078933623503673
73,460.64,7.856450809464611
74,462.55,6.538729812308919
75,464.08,4.176964954816075
76,465.05,6.139714876983194
77,466.43,2.6249505633477845
78,467.02,3.6884701492537006
79,467.84,5.37613763024
80,469.0,4.844043989002662
81,470.02,6.1791510277032815
82,471.15,7.951739130434821
83,472.58,7.426239870340494
84,474.05,11.708160535117008
85,476.31,4.637221654749645
86,477.27,16.388313061872083
87,480.57,6.725688867516136
88,482.03,9.103537725096887
89,484.09,4.319948636902536
90,485.18,3.316627974463013
91,486.03,4.437868580894559
92,487.21,1.3481459287980426
93,487.58,4.6289839572192175
94,488.84,6.290725952813059
95,490.53,2.3740254482360275
96,491.14,5.620354959574111
97,492.56,6.3494852785426055
98,494.08,3.9563036303631045
99,495.0,6.161704781704762
100,496.38,29.67692307692318
101,502.98,7.782081245054042
102,504.55,6.566000540102676
103,505.85,10.687396008655897
104,508.17,7.3905820721768976
105,510.06,3.935995302407516
106,511.06,1.8226477359937456
107,511.53,11.654288425047334
108,514.56,6.463273657289327
109,516.1,13.253601895734452
110,519.01,9.13230131942311
111,520.64,2.1062458975008926
112,521.08,5.728563484707941
113,522.36,2.9657891453525767
114,523.08,5.675002968533346
115,524.51,6.72056839475326
116,526.14,10.719585647159622
117,528.69,1.6381345439536832
118,529.09,2.822857142856935
119,529.77,5.842929194956311
120,531.03,4.719557522123917
121,531.9,16.01809523809508
122,534.68,15.925630066323128
123,537.12,7.592813932172395
124,538.48,6.436348884381492
125,539.82,7.317888944472063
126,541.36,14.792174946517752
127,544.6,6.827520491803125
128,546.01,3.7056277755347566
129,546.93,5.952879336029248
130,548.35,3.4448494673459122
131,549.12,6.164065335753075
132,550.52,2.1389860352154333
133,551.05,11.731082654249127
134,554.05,3.573195215719873
135,554.9,2.643596730245332
136,555.5,15.535763411279232
137,559.0,4.323285798007513
138,560.1,3.5584681130831854
139,560.93,8.025400430313173
140,562.68,1.6514592472870206
141,563.05,6.39024125190176
142,564.55,2.279882766705905
143,565.13,4.8168255445912544
144,566.4,2.7378401727862105
145,567.14,5.26604796663204
146,568.6,1.5389010989008922
147,569.04,5.759650315687445
148,570.72,2.8446808510639054
149,571.57,4.53757009345761
150,572.93,2.305168539326025
151,573.62,4.15787841191067
152,574.87,2.578376401755241
153,575.62,6.539336178283348
154,577.56,7.39689619196686
155,579.61,5.056273229532691
156,581.05,1.734161592891229
157,581.55,9.74256578947389
158,584.36,6.4762164236376005
159,586.03,8.92073510773125
160,588.17,8.780025243418697
161,590.54,4.925571227080486
162,592.01,3.1529172684133773
163,592.78,5.11167723749117
164,593.91,6.233473744951339
165,595.08,6.248124999999781
166,596.25,20.99222865412419
167,600.18,7.173990978623456
168,602.0,3.322758620689781
169,602.84,7.479310557727631
170,604.67,2.0318627450980395
171,605.17,5.670648573139385
172,606.59,1.8794371896266322
173,607.09,4.472456785582713
174,608.28,6.6896350364966395
175,610.07,12.02677454946646
176,613.27,9.264658997534848
177,615.54,15.524132712456451
178,619.51,4.561897193100988
179,620.8,5.764869967937484
180,622.37,8.207610804641412
181,624.5,16.368259530227327
182,628.71,1.7005058365756622
183,629.0,8.027969855428818
184,630.43,7.199125117591866
185,632.02,4.393561055430725
186,633.1,6.243132558691034
187,634.47,2.987240841777152
188,635.08,14.585993820803294
189,638.08,3.607777777777462
190,638.91,6.469149130832733
191,640.37,7.675865362747368
192,642.11,4.81027893320271
193,643.14,7.156338439095381
194,644.68,1.5844897959184274
195,645.04,3.881931869116929
196,645.93,12.43537215308758
197,648.68,1.4970475723396162
198,649.0,7.634851485148537
199,650.62,6.460525291828731
200,652.01,5.242213393870842
201,653.2,4.9387598216179684
202,654.38,4.107066974595661
203,655.3,9.722535211267974
204,657.1,9.12911299227074
205,658.5,4.604902506963846
206,659.24,5.944364338590174
207,660.26,4.643199517054206
208,661.1,8.859748515542881
209,662.52,15.824884792626728
210,664.52,5.229400544959587
211,665.09,15.321868743047704
212,666.73,18.71800604229621
213,668.59,12.568284389489436
214,670.03,6.375763546797954
215,670.79,12.549090909090806
216,672.43,6.71689599352521
217,673.38,20.116774438950173
218,676.38,13.799999999999725
219,678.68,2.2145774647891745
220,679.09,3.9569555302166477
221,679.84,6.2342547115931115
222,681.02,7.95809414466131
223,682.52,3.264482158398681
224,683.13,4.42051470588215
225,683.92,5.688709677419507
226,684.77,25.94084415584393
227,688.43,13.03509492578538
228,690.54,2.636656151419767
229,691.0,8.936280888333098
230,692.57,2.51266063932809
231,693.0,6.305793467502149
232,694.06,5.772957287251494
233,695.04,9.7362659846551
234,696.72,2.308661856346262
235,697.11,4.175668727627939
236,697.82,7.072549388522452
237,699.06,6.634217926186391
238,700.29,6.37715340442986
239,701.54,6.21592295345109
240,702.78,8.625781584582578
241,704.5,10.611390041493575
242,706.67,9.280722922562786
243,708.58,10.242848180677433
244,710.73,1.593995574133417
245,711.07,7.04383826044462
246,712.58,6.694755244754929
247,714.03,11.617565982404736
248,716.52,4.346243441762935
249,717.01,14.525469988674715
250,718.54,3.9481179775280615
251,719.17,8.21368121442162
252,720.6,28.7120814479642
253,722.57,4.503179074446584
254,723.21,7.246044071353421
255,724.37,9.400588235293839
256,726.05,4.077632468997069
257,726.83,8.584207234157981
258,728.52,7.2936135730563825
259,730.04,4.873317535545252
260,731.11,6.626452494873548
261,732.61,2.238032527671069
262,733.12,5.988192341941209
263,734.5,9.250804020100645
264,736.59,2.6185219399536344
265,737.13,6.966912751677609
266,738.56,7.005794669299155
267,740.05,4.929683413627039
268,741.16,1.801578947368733
269,741.58,5.552998909487266
270,742.88,7.050429594272003
271,744.65,1.4104949381327507
272,745.02,6.020614898755461
273,746.61,14.22118143459904
274,750.52,14.55553275231918
275,753.31,6.922687957418596
276,754.91,6.849656925031709
277,756.55,8.020368550368662
278,758.52,78.04717948717973
279,777.08,1.863334052188665
280,777.52,23.275022250477004
281,783.09,23.76191521574542
282,789.28,6.117779960707538
283,790.83,13.861685324648725
284,794.25,90.8635701163503
285,816.62,6.269396984924404
286,817.01,24.071928783382504
287,818.53,6.550826306914245
288,819.01,14.580408163266119
289,820.07,258.96953742640846
290,839.09,2.9527019498606206
291,839.87,8.379469964664569
292,841.2,10.293926645091053
293,842.81,16.618994413408025
294,846.51,1.9391324921136006
295,847.0,13.990609967288908
296,850.6,7.335748480942479
297,852.55,8.701812970261605
298,854.91,8.499837464445438
299,857.01,3.9533410942956726
300,857.89,6.344239423942593
301,859.34,7.05532130777909
302,860.95,2.667105436935965
303,861.57,5.627566539923575
304,862.92,2.377774343122155
305,863.53,28.59366086468273
306,871.04,5.426646171045518
307,872.47,16.82070422535213
308,877.09,13.650048939640843
309,881.05,5.918674351585045
310,882.79,1.3461948349133235
311,883.18,1.358313368471799
312,883.58,7.207087608524026
313,885.72,8.14296239914757
314,888.2,5.030531732418239
315,889.8,16.97328435609336
316,895.17,14.586730318861669
317,899.11,7.595633802816936
318,901.1,39.33218543046333
319,906.26,2.9824086870681623
320,907.12,11.26834997695488
321,910.53,9.960480905233638
322,912.11,6.232431650047876
323,913.18,1.9085380116962873
324,913.59,5.355670840787199
325,914.82,6.589716887744874
326,916.48,2.6970061301164714
327,917.16,5.935781729000761
328,918.62,8.099291854277563
329,920.61,7.617506297228952
330,922.56,5.56228800278628
331,924.1,7.222128851540529
332,926.0,4.335627009646466
333,927.08,2.676476805636914
334,927.76,3.8724626579854458
335,928.76,7.303902439024444
336,930.62,1.581076299299514
337,931.04,5.2952256976961465
338,932.43,2.3170802919708198
339,933.05,5.401182028882254
340,934.52,7.8628544423443065
341,936.57,7.63592396444068
342,938.56,5.93369447453963
343,940.16,4.926474743906829
344,941.51,5.096007820831802
345,942.9,4.1721598535691395
346,943.93,5.547633262260197
347,945.04,19.655911685191025
348,948.61,9.408402505873088
349,951.0,6.113916449086213
350,952.61,10.684736842105124
351,955.4,6.2494801223244725
352,956.94,6.723448127421091
353,958.53,19.09760488582046
354,960.66,5.473548616040063
355,961.13,16.282857142856983
356,962.52,5.835454545454653
357,963.01,12.10077598828686
358,964.02,10.065905044510881
359,964.85,20.129837877670845
360,966.52,5.282301933873892
361,967.03,20.609629858112182
362,969.04,16.44415233415247
363,970.65,5.846343825666272
364,971.23,12.624041811846249
365,972.53,4.923051869722649
366,973.02,15.956072083079311
367,974.59,5.745544794188221
368,975.16,10.933008849557655
369,976.27,7.322414208308431
370,977.0,15.547591812160894
371,978.55,6.176332179931761
372,979.19,12.862882096069661
373,980.59,5.259826756496519
374,981.23,11.502249388753016
375,982.61,21.220000000000233
376,985.08,12.799883268482375
377,986.09,10.7922582448293
378,987.24,12.491366906475156
379,988.94,10.26910219170816
380,991.01,5.12822970007317
381,992.38,6.421341107871667
382,994.02,5.018215912135012
383,995.02,4.5320751494449905
384,995.88,6.369442848937633
385,997.08,6.3749295774643375
386,998.3,12.252787610619444
387,1000.68,9.55596309756796
388,1002.52,3.0000000000001137
389,1003.12,3.196728110599359
390,1003.69,10.040851063829049
391,1005.05,5.428587181254279
392,1005.93,7.018191985088588
393,1007.17,2.0773832820804277
394,1007.57,8.002955870108009
395,1009.12,6.6203556771548335
396,1010.2,5.688205128204573
397,1010.76,12.839301625526518
398,1012.04,9.83114494518907
399,1013.01,16.082948636651587
400,1014.54,5.549013539651644
401,1015.06,15.88618925831202
402,1016.56,5.787936507937451
403,1017.09,17.15788511749259
404,1018.68,5.56164556962116
405,1019.21,10.273069053707523
406,1020.18,10.7548016139882
407,1021.15,16.285360824742888
408,1022.59,5.782226050999208
409,1023.1,16.451008403360767
410,1024.53,6.647494866528851
411,1025.12,15.87688715953327
412,1026.6,13.22442804428102
413,1028.27,5.304746760895045
414,1029.04,12.935896180215098
415,1030.59,15.590041724617812
416,1032.55,2.606402835203879
417,1033.03,7.780296540362346
418,1034.55,6.958368064273335
419,1036.01,4.392451440053544
420,1037.02,6.563132050431242
421,1038.54,2.0579092702170403
422,1039.02,6.948785379986234
423,1040.62,6.071185451280186
424,1042.01,9.674273907910766
425,1044.14,4.913134657836432
426,1045.19,6.811119820828384
427,1046.5,17.859882468169296
428,1048.64,5.115384615384615
429,1049.14,15.70165278667299
430,1050.62,5.500224948875358
431,1051.11,15.902762430940259
432,1052.51,5.930847212165098
433,1053.01,18.09125915080516
434,1054.52,5.4798167006110985
435,1055.01,9.58080118694318
436,1055.8,31.685832187069632
437,1058.6,5.431294862773011
438,1059.07,16.470718232044717
439,1060.52,5.997528089887431
440,1061.04,17.069887640449647
441,1062.52,17.251636107193335
442,1064.01,8.648581173260368
443,1064.78,22.01457025920914
444,1066.74,5.514965034965244
445,1067.22,16.243535911602933
446,1068.65,304.70181818181794
447,1095.17,7.248535596655645
448,1096.68,2.4485209981731098
449,1097.12,5.419204545455598
450,1098.15,4.261553784859911
451,1099.05,6.424450724125636
452,1100.07,4.125574912892313
453,1100.99,1224.843529411765
454,1371.41,9.748156424581126
455,1372.89,9.791705639614111
456,1374.8,0.8148800983810011
457,1375.0,8.647495323217251
458,1377.1,7.327409353652062
459,1379.12,1.8265326633173176
460,1379.64,4.572833908329006
461,1380.96,7.2346493050003975
462,1383.09,5.95375524701327
463,1384.83,15.332907801418953
464,1389.17,12.362541567695796
465,1391.2,30.92630136986344
466,1395.14,3.3882525487384756
467,1396.06,5.045041322314208
468,1397.51,4.487837175085669
469,1398.81,13.424435455504947
470,1402.5,15.229580419580184
471,1406.06,3.9531652661063044
472,1407.1,13.974344710541553
473,1410.75,1.743881748071595
474,1411.08,11.28080407701067
475,1413.23,7.708782001551235
476,1414.81,18.197448747153143
477,1418.93,2.36648885887859
478,1419.6,6.96774657086865
479,1421.62,4.744247104247446
480,1423.01,8.015380906460635
481,1425.36,15.694141791044895
482,1430.07,7.203039060019424
483,1432.2,6.172146529562797
484,1434.01,7.274357005758497
485,1436.15,7.228952827032262
486,1438.21,8.184155844155558
487,1440.55,13.644790965881757
488,1444.56,6.501128526645951
489,1446.5,14.52617603671545
490,1450.7,1.086418092909296
491,1451.03,5.152838886353054
492,1452.6,2.602350384002838
493,1453.42,4.908118471884219
494,1454.98,1.685894258570699
495,1455.53,9.17321554770335
496,1458.47,2.2891891891888423
497,1459.07,5.499184075680333
498,1460.46,2.266136363636049
499,1461.05,7.026924621281664
500,1462.93,10.332205270457337
501,1466.05,6.311672109731826
502,1467.12,2.656805778492175
503,1467.65,6.993430790314891
504,1469.23,3.4640599455043244
505,1470.16,13.995984522785378
506,1474.07,4.033220599538906
507,1475.29,6.234426314875955
508,1477.02,8.379842519685507
509,1479.14,1.819784145886814
510,1479.62,4.983177073796586
511,1480.95,3.16571428571386
512,1481.83,4.517774030354035
513,1483.11,7.248821237214271
514,1485.22,1.5976751854906457
515,1485.68,3.893192472762909
516,1486.8,3.087979274611856
517,1487.66,41.65920466595918
518,1499.07,6.671065054692103
519,1500.79,6.379600611504269
520,1502.44,10.852909593367585
521,1505.18,20.28970588235243
522,1510.58,7.070269886363869
523,1512.51,14.742336432204677
524,1516.57,6.860700876094967
525,1518.62,1.6469337320951039
526,1519.11,6.4069392560040415
527,1521.02,5.399891039193147
528,1522.59,44.21666193181878
529,1534.66,5.042039542143109
530,1536.06,25.938015061861112
531,1543.09,1.7245980985307483
532,1543.57,4.859723991507996
533,1544.9,35.22791399471828
534,1554.1,12.00720091150824
535,1557.22,6.003907631246213
536,1558.84,17.27418020679613
537,1560.9,9.562404092070821
538,1562.55,2.6936367958171608
539,1563.14,7.011076792891214
540,1564.82,7.892135045999155
541,1567.01,7.255140745400496
542,1569.17,1.1394736842102304
543,1569.52,4.565449284191617
544,1570.91,7.215462791869486
545,1572.96,7.000288016458213
546,1574.92,7.527878470403088
547,1577.0,51.61083469721721
548,1579.02,55.07142857142857
549,1580.52,11.850786240788715
550,1581.13,27.570392156861327
551,1582.72,6.373140172278779
552,1583.22,22.330527441198388
553,1585.13,50.13489212242749
554,1591.01,29.88283734203049
555,1595.21,12.64310492505359
556,1597.2,8.277563025209425
557,1598.57,10.728571428571158
558,1600.37,24.768184744126167
559,1604.62,2.5617362168750124
560,1605.08,9.562779957742329
561,1606.81,6.551775417299291
562,1607.99,69.93891891891768
563,1609.01,25.867955112219065
564,1612.06,5.477976653697076
565,1613.18,8.310868415251665
566,1615.11,8.511908713693618
567,1617.18,7.119859629421259
568,1619.05,5.545421666941127
569,1620.65,1.8146058091285673
570,1621.17,5.538675496688457
571,1622.76,6.930156121610517
572,1624.76,1.5042838107930274
573,1625.19,5.8350503018103534
574,1626.85,0.7699083486086606
575,1627.07,6.706584630839062
576,1628.98,10.622404616864008
577,1632.1,7.719572698594924
578,1634.55,25.729822324115432
579,1642.72,6.612082111437201
580,1644.64,1.467644787644229
581,1645.07,4.463356088268533
582,1646.39,7.153238366571332
583,1648.51,1.9801707097930263
584,1649.12,5.564244928625212
585,1650.83,14.610394226292433
586,1655.22,2.839380530973738
587,1655.67,8.86738703339882
588,1657.17,7.5093749999993795
589,1658.82,6.67757855822544
590,1660.59,2.1753323319570645
591,1661.16,4.815304740406285
592,1662.42,10.505556594948516
593,1665.18,12.39314014752318
594,1668.59,1.6261318051576548
595,1669.07,13.700516282763946
596,1673.12,51.99706546275559
597,1676.02,21.051470588235297
598,1677.77,12.025945945945136
599,1678.85,23.160123304562173
600,1681.11,27.302417582417796
601,1684.58,10.646748688987431
602,1686.09,5.09294117647065
603,1686.83,12.25179212839239
604,1688.65,12.424372230427467
605,1690.55,12.253261847111839
606,1692.53,12.11999999999989
607,1694.55,25.043534136546675
608,1698.71,15.51254443880103
609,1700.51,6.743994334277965
610,1701.22,18.744984500929284
611,1703.04,7.545060009602133
612,1703.96,6.908692706257536
613,1704.95,10.820490670352454
614,1706.7,1.9654330125829738
615,1707.0,9.066837929731104
616,1708.36,6.224129554656642
617,1709.24,5.942742316784178
618,1710.1,6.176203703704259
619,1711.01,13.037334326135635
620,1712.99,5.7936437797419496
621,1713.94,6.558525532633985
622,1715.02,8.175797767564664
623,1716.4,3.5164849833139473
624,1717.08,7.370654349499526
625,1718.6,1.8084996794189472
626,1719.03,6.5887024743516385
627,1720.67,7.558778215693132
628,1722.72,6.414035950483103
629,1724.53,7.384900662252067
630,1726.65,5.120486448922305
631,1728.07,3.204870466321131
632,1728.85,7.244484629295155
633,1730.5,2.2233455882352944
634,1731.0,6.183405875952316
635,1732.45,2.708724400234269
636,1733.14,4.602863858253514
637,1734.38,2.3067210787788435
638,1735.01,5.403500262651057
639,1736.5,1.8421617752326416
640,1737.0,5.89039702233214
641,1738.61,1.7844665182394246
642,1739.11,4.420574555403589
643,1740.35,2.4117704597327942
644,1741.05,5.247519083969312
645,1742.6,1.8362078395630095
646,1743.16,1.4528913443824865
647,1743.6,4.141137905048923
648,1744.87,2.397211107793401
649,1745.61,4.600667251975591
650,1747.05,4.8020924718435385
651,1748.54,4.18116197183064
652,1749.09,5.1631983805669295
653,1749.82,7.617884038653672
654,1751.09,7.307796929706665
655,1752.54,2.4699707174230063
656,1753.07,6.410737294202277
657,1754.47,2.641421568626897
658,1755.12,5.228007033998264
659,1756.45,2.199921807123879
660,1757.06,4.563568464730226
661,1758.33,2.9433933118321556
662,1759.16,4.062018681888521
663,1760.29,2.895337873231894
664,1761.09,27.058414464534074
665,1768.59,6.970000000000097
666,1770.56,13.937380755900282
667,1774.57,6.443249767873905
668,1776.51,1.7088431641517463
669,1777.03,4.672901649358822
670,1778.45,2.189504082249268
671,1779.12,6.967347089167514
672,1781.29,1.1993484757923736
673,1781.66,4.727016248153706
674,1783.13,3.1210407239819005
675,1784.13,7.707510729613162
676,1786.58,6.530043763676454
677,1788.72,7.309558149228509
678,1791.09,4.8576324689971555
679,1792.65,1.1829299901390882
680,1793.03,6.80183381088851
681,1795.19,2.452784150156198
682,1796.02,7.519338711810553
683,1798.54,6.062578466428206
684,1800.57,1.7791964525669532
685,1801.16,3.752494934486047
686,1802.4,2.3651816389749083
687,1803.16,4.522191780821375
688,1804.6,1.6066843736166445
689,1805.1,4.845352049241885
690,1806.59,1.825306251984143
691,1807.13,4.8419867549664435
692,1808.52,16.640487804878564
693,1812.63,1.6661614497521569
694,1813.11,5.2356741057785285
695,1814.7,1.8413282196202068
696,1815.31,5.100614672835535
697,1817.02,3.207939051622009
698,1818.1,13.134479958082453
699,1822.53,1.7942675159239747
700,1823.13,3.800888800318798
701,1824.4,2.0224662162157916
702,1825.05,4.420082836797295
703,1826.44,2.042670949976694
704,1827.06,5.263106876553406
705,1828.57,8.37236280487833
706,1830.74,6.703820224719067
707,1832.5,6.933252775963392
708,1834.51,6.835888717155924
709,1836.57,6.875670404680644
710,1838.57,2.190593274791099
711,1839.09,26.075147928994934
712,1844.64,8.9737174910755
713,1846.5,9.691629760850642
714,1849.15,6.799407048857726
715,1851.23,4.116460333874931
716,1852.51,1.8509174734899072
717,1853.07,5.787840332256575
718,1854.82,2.250680628272462
719,1855.5,5.654101411071635
720,1857.2,1.717420939514831
721,1857.72,4.917552279223679
722,1859.23,3.2025582098579366
723,1860.21,5.819053289669398
724,1862.01,7.494797246745296
725,1864.32,7.349728014505893
726,1866.57,6.62551150895156
727,1868.52,6.767704817428509
728,1870.57,1.8455482619727812
729,1871.14,4.944067197170528
730,1872.68,1.24777126099666
731,1873.07,4.086607221166409
732,1874.35,5.597998085819419
733,1876.0,4.279927095990059
734,1877.06,5.7289027066569975
735,1878.29,12.131773575261905
736,1880.8,1.1827754763878318
737,1881.03,4.253709021944857
738,1881.87,5.337220518540206
739,1882.9,9.015009129640294
740,1884.52,8.25448886176391
741,1886.0,3.9282586027109336
742,1886.8,8.155563689604685
743,1888.55,9.61127882599558
744,1890.09,5.965839057899848
745,1891.1,4.689069767442282
746,1892.01,5.181767493727349
747,1893.01,5.911326431575488
748,1894.02,5.498092643052327
749,1894.92,13.730542689250083
750,1897.14,6.636093402519701
751,1898.55,2.212636033857133
752,1899.1,5.285045804324235
753,1900.51,1.7468399452804702
754,1901.0,5.144285714285944
755,1902.43,2.1903108808286564
756,1903.04,12.631065658301724
757,1906.57,2.0720253815817564
758,1907.15,5.3366599087683415
759,1908.66,2.44376055257102
760,1909.4,4.61915890657805
761,1910.82,2.978750722961422
762,1911.76,4.005895685021038
763,1913.02,1.935318655852084
764,1913.63,4.967107583774105
765,1915.18,3.032169981916284
766,1916.11,6.501924482338671
767,1918.09,7.8825056095738795
768,1920.52,6.580848573518479
769,1922.58,6.472514094164344
770,1924.55,6.654220963172866
771,1926.53,1.6449340037712437
772,1927.02,5.238666876277131
773,1928.58,7.040260540028913
774,1930.67,1.783771872974662
775,1931.19,4.1355319148937415
776,1932.4,2.8553782332842785
777,1933.23,4.050115128912169
778,1934.41,2.161394611726987
779,1935.05,6.739205939315781
780,1937.02,13.848983050847332
781,1938.03,16.18488245931227
782,1940.11,5.279445407279587
783,1941.23,3.2111353032656917
784,1942.05,7.698686131386657
785,1944.11,8.743574879227644
786,1946.67,6.340277777777778
787,1948.67,1.6946685673555522
788,1949.21,3.8794210302256564
789,1950.45,2.2768689635289894
790,1951.17,4.026543758329631
791,1952.42,1.9546877409403611
792,1953.01,5.307272139624926
793,1954.56,2.164673157163218
794,1955.16,4.3512253374863334
795,1956.37,2.4685699848409888
796,1957.07,5.218106755629724
797,1958.56,2.4131824724133653
798,1959.27,4.066698518872586
799,1960.47,2.1792015392011055
800,1961.11,4.434263183835094
801,1962.39,2.718051948051884
802,1963.16,5.364007146503285
803,1964.67,1.4434782608690728
804,1965.07,5.331309881562799
805,1966.53,1.8406662028178487
806,1967.04,6.03149683164945
807,1968.73,7.0044323483671915
808,1970.68,1.5122147651000954
809,1971.11,4.8467890802732745
810,1972.52,1.7379887570267973
811,1973.04,5.307136237257172
812,1974.64,2.032909738716958
813,1975.27,1.2743806470419685
814,1975.67,3.465417695771932
815,1976.76,6.312508710801793
816,1978.63,7.538327137545641
817,1980.62,2.0932098765439022
818,1981.17,4.641609363569895
819,1982.41,2.456474253853062
820,1983.12,4.48514787284569
821,1984.45,2.3081988742966177
822,1985.14,4.16043202032966
823,1986.37,2.3959502225154354
824,1987.06,5.724165366615188
825,1988.65,7.505781191456713
826,1990.62,6.892992291521003
827,1992.52,1.8791445142579402
828,1993.07,4.073679394130764
829,1994.28,2.799002055985837
830,1995.11,4.347582680940127
831,1996.39,2.190387596898789
832,1997.03,5.440172555464036
833,1998.6,1.7105247426104602
834,1999.09,5.071378621378781
835,2000.54,1.9196171997901479
836,2001.07,5.3255929294663105
837,2002.56,1.656269560827961
838,2003.03,7.492537764350838
839,2005.16,4.209219209408785
840,2006.38,2.737046004842459
841,2007.18,6.444744697564288
842,2009.1,1.8350455373411858
843,2009.66,4.326833712983846
844,2010.98,1.9169446883227999
845,2011.58,7.834123353120109
846,2014.05,8.09960893039533
847,2016.59,6.962592004618415
848,2018.79,5.705100195871628
849,2020.54,6.5331197301855575
850,2022.52,7.267296859825592
851,2024.64,6.839814783632999
852,2026.58,7.094870259480943
853,2028.61,6.8963116370809
854,2030.6,7.3203270645956655
855,2032.72,3.2397080291964357
856,2033.04,13.164970603955432
857,2034.5,2.9111943793909045
858,2035.04,7.518411633110308
859,2036.63,4.937693492491265
860,2037.9,8.553484790141766
861,2040.1,4.206945279615883
862,2041.15,6.4509274873522555
863,2042.7,2.0194505494506667
864,2043.17,3.2690326914464842
865,2043.92,5.583764595983227
866,2045.16,2.3996960486322187
867,2045.66,8.029482102055617
868,2047.33,12.451972872997041
869,2050.38,5.5314911350206355
870,2052.07,7.800561367319351
871,2054.5,6.965783982817236
872,2056.61,4.619490944688116
873,2057.95,7.2727479892767155
874,2060.02,3.610296735904467
875,2060.93,6.486492693111323
876,2062.5,2.742803013010245
877,2063.12,3.027127659575648
878,2063.82,5.372343960485037
879,2065.05,6.706765692381576
880,2066.51,3.8702351591602895
881,2067.24,6.253550295858483
882,2068.39,12.62380311831366
883,2070.65,2.0235986159175363
884,2071.03,7.8703284258210635
885,2072.53,4.1160178748734815
886,2073.22,5.9626717557281355
887,2074.03,7.328863334804413
888,2074.99,3.9808045977021314
889,2075.58,9.48790790790747
890,2077.16,4.325627306274198
891,2078.13,9.352911019445651
892,2080.5,6.551537110233343
893,2082.55,6.640489550528599
894,2084.66,6.454239228683398
895,2086.64,1.2666075594963973
896,2087.02,4.682980501392274
897,2088.43,2.18287069095312
898,2089.1,4.9418181818188955
899,2090.61,1.2941877794339753
900,2091.01,5.525309734512632
901,2092.73,2.2140159778770263
902,2093.4,4.321015037593863
903,2094.69,1.641665053243044
904,2095.17,4.411626162126018
905,2096.45,1.9948336252195737
906,2097.0,4.2515094339627515
907,2098.11,4.3860045146726865
908,2099.11,7.7760784313721905
909,2100.69,9.450445859872787
910,2102.65,8.845661165656463
911,2104.79,6.6544253585980835
912,2106.61,7.131777970511774
913,2108.59,6.96469301340808
914,2110.5,7.233349282297364
915,2112.53,7.19543836945941
916,2114.63,6.931650550183458
917,2116.61,7.265400271369454
918,2118.66,5.486404494382456
919,2120.27,2.599910004500366
920,2121.07,5.004722508464422
921,2122.63,1.1585763000849099
922,2123.0,1.8232123463844527
923,2123.58,4.340750070760995
924,2124.97,12.92749576988184
925,2129.12,10.189742489269575
926,2130.49,3.3564895279783213
927,2131.08,8.176934700485148
928,2132.7,1.700231524357393
929,2133.15,6.161384059217737
930,2134.87,6.234578922420297
931,2136.72,2.434013648628063
932,2137.44,4.84371887803359
933,2138.88,1.1024335378321168
934,2139.19,5.055147878992154
935,2140.62,1.9460059017530367
936,2141.16,4.985411681915402
937,2142.53,2.3898619605096956
938,2143.19,4.913466424683005
939,2144.51,1.871616678858815
940,2145.01,5.905180025329048
941,2146.6,1.529545614653312
942,2147.02,4.61322869955157
943,2148.27,2.7819314170447536
944,2149.06,6.76587064676636
945,2151.0,5.045371650092124
946,2152.43,2.460493096647069
947,2153.14,4.07466732869936
948,2154.31,3.3847750362852786
949,2155.3,4.561227402473527
950,2156.65,1.164205955334685
951,2157.0,6.801442322865648
952,2159.02,5.77608695652112
953,2160.72,1.1458892368564442
954,2161.05,5.442081552120003
955,2162.62,1.5580105055820346
956,2163.07,5.997897529430574
957,2164.79,14.711799804369027
958,2169.06,6.870640941792837
959,2171.05,2.1875420459800763
960,2171.71,7.500377183489708
961,2173.97,4.223151432470674
962,2175.26,8.615791001451317
963,2177.78,4.475709581824042
964,2179.07,1.763477088948787
965,2179.57,5.947641921397572
966,2181.26,1.0978685191458588
967,2181.57,5.357460506199262
968,2183.08,3.5896421471179933
969,2184.11,6.769058597501658
970,2186.1,8.354248861912584
971,2188.65,6.29052889324113
972,2190.68,5.864176189788511
973,2192.53,1.911496786042001
974,2193.11,3.9476721111274737
975,2194.31,2.351982378855542
976,2195.01,4.483444639717816
977,2196.33,2.4723933149448953
978,2197.05,5.2568141592919115
979,2198.59,1.4761609388099792
980,2199.01,6.013679556093647
981,2200.68,7.282822665268368
982,2202.69,1.1195403899719478
983,2203.0,5.670871027409225
984,2204.61,1.6052657004824085
985,2205.08,4.3058565737051175
986,2206.35,2.342826572980064
987,2207.04,4.980028653295991
988,2208.51,1.9563644992878417
989,2209.09,5.788394602139804
990,2210.83,2.689869261174146
991,2211.65,3.8400136923781485
992,2212.82,2.2460985720860553
993,2213.5,4.521122913505669
994,2214.88,2.5236117936118565
995,2215.61,4.275743430715748
996,2216.85,6.025714285715105
997,2218.59,1.8274336283185841
998,2219.09,4.589888268156562
999,2220.3,8.646891584533737
1000,2222.55,12.239397869383685
1001,2224.09,12.413231412936513
1002,2226.22,7.779073535522745
1003,2228.11,7.1415085754280465
1004,2230.08,6.846155891640479
1005,2232.04,3.905567418633206
1006,2233.13,3.231683591662614
1007,2234.01,4.283910574874399
1008,2235.18,3.285038560411571
1009,2236.1,6.916835106383043
1010,2238.08,8.23482183820156
1011,2240.58,6.565336400229787
1012,2242.66,6.182852816475935
1013,2244.55,2.012728805763139
1014,2245.16,3.907693018956119
1015,2246.34,2.6373909049141213
1016,2247.14,4.151253717327448
1017,2248.38,2.650282574568167
1018,2249.17,5.0247315814921425
1019,2250.64,1.922751460090663
1020,2251.2,4.611920103094027
1021,2252.55,2.442213363099305
1022,2253.27,4.703731722822201
1023,2254.66,1.413262642741686
1024,2255.07,4.214398508980199
1025,2256.26,3.193717948717548
1026,2257.13,4.361078344288706
1027,2258.32,2.9624838878233692
1028,2259.14,5.142999826900821
1029,2260.57,1.7064846077450193
1030,2261.06,5.103006382264985
1031,2262.51,7.388085518211286
1032,2264.54,6.426832579185588
1033,2266.27,6.9802204408813555
1034,2268.14,7.35746649531866
1035,2270.1,9.00927038626603
1036,2272.62,6.337098821396371
1037,2274.56,1.8650324160788347
1038,2275.15,3.897522503214059
1039,2276.39,2.245245783480005
1040,2277.1,4.728656716418028
1041,2278.56,1.8555209742901135
1042,2279.13,5.200360036003305
1043,2280.73,1.166231343283279
1044,2281.08,1.906982017201486
1045,2281.65,3.7286956521735495
1046,2282.77,6.548076009501371
1047,2284.71,1.8990604026844358
1048,2285.25,4.034884318766457
1049,2286.38,2.8896285611241916
1050,2287.16,4.67966892262667
1051,2288.41,2.5168449486774684
1052,2289.09,4.939567483063702
1053,2290.46,2.4841971112992693
1054,2291.16,4.859119373777974
1055,2292.57,2.012829581992514
1056,2293.16,4.429011553274047
1057,2294.46,2.7033930626326863
1058,2295.24,4.525439533754811
1059,2296.56,2.020881164107208
1060,2297.15,5.611436248168427
1061,2298.78,1.2544621513940521
1062,2299.15,5.122605055546611
1063,2300.65,1.214055299538855
1064,2301.0,6.001920313519822
1065,2302.74,1.200477887576171
1066,2303.09,1.9921084239568998
1067,2303.67,4.325332798716858
1068,2304.94,2.2773827805909046
1069,2305.6,4.262915650902812
1070,2306.84,2.5151479289933407
1071,2307.58,4.640270139894309
1072,2308.94,2.1425933202353793
1073,2309.56,5.4442340012933235
1074,2311.15,1.3337005968700275
1075,2311.54,8.537191977077303
1076,2314.06,8.28435936315456
1077,2316.59,2.232762299939931
1078,2317.0,8.744416543575285
1079,2318.61,8.971880083662562
1080,2320.61,1.567769560140489
1081,2321.01,5.524533853242665
1082,2322.52,7.3606064601182775
1083,2324.64,6.948471760798167
1084,2326.63,6.974521831358846
1085,2328.54,7.284215938303213
1086,2330.58,6.9081684491987545
1087,2332.55,5.7069819417118515
1088,2334.1,7.3087533875348205
1089,2336.07,8.872205726404491
1090,2338.5,7.1092300098723
1091,2340.55,6.58118830556441
1092,2342.51,1.8891779213143356
1093,2343.1,4.716944485349073
1094,2344.57,1.7070339369958314
1095,2345.09,4.833902326298071
1096,2346.55,1.633661272232076
1097,2347.03,5.361475409835121
1098,2348.58,7.14766149223823
1099,2350.62,4.031403628894603
1100,2351.75,4.924535315985819
1101,2353.05,2.0822876949730755
1102,2353.54,6.2004869762168004
1103,2354.95,7.085913154534072
1104,2356.64,1.4375129832673554
1105,2357.01,2.20417431192548
1106,2357.58,4.812945159106748
1107,2358.94,2.454679144384389
1108,2359.64,4.9285493262363165
1109,2361.05,1.6387964989051782
1110,2361.54,5.201638141809051
1111,2363.12,1.718149084018423
1112,2363.63,5.390902074288222
1113,2365.21,3.2223648540896397
1114,2366.16,6.496513586524956
1115,2368.08,8.365412930628448
1116,2370.57,6.674755602345329
1117,2372.62,6.426738117428742
1118,2374.55,7.244150103354634
1119,2376.69,6.691020408163454
1120,2378.63,6.889209726443126
1121,2380.58,7.216755384346857
1122,2382.57,5.738205128203961
1123,2384.18,8.932378902045478
1124,2386.6,7.387927866621042
1125,2388.68,6.1917400264988
1126,2390.61,1.290080137377905
1127,2391.02,5.059090909091372
1128,2392.61,1.257142857143143
1129,2393.01,1.8436165577339736
1130,2393.59,4.031474996497263
1131,2394.89,2.376562677255362
1132,2395.65,4.467210300429414
1133,2397.07,1.9987991104518348
1134,2397.69,8.132302922939838
1135,2400.22,5.880398972344556
1136,2402.02,8.192167577413478
1137,2404.52,2.313894866276681
1138,2405.22,5.471756398940864
1139,2406.72,1.3659983256608528
1140,2407.05,6.627526881720351
1141,2408.57,8.887134831459772
1142,2410.54,2.7980373831774727
1143,2411.06,2.5486692989009114
1144,2412.04,5.529999999999745
1145,2412.83,7.056176470589921
1146,2413.82,6.971052631577136
1147,2414.87,5.819939250759585
1148,2415.83,6.434304812835209
1149,2416.9,5.956131243877156
1150,2417.91,6.079019607844318
1151,2418.94,10.379000979430534
1152,2420.7,2.4194830132962037
1153,2421.07,9.354094728799755
1154,2422.46,15.215248447205093
1155,2424.69,1.977906976743672
1156,2425.04,7.410433712704703
1157,2426.36,11.29536243180109
1158,2428.01,12.070024607810938
1159,2430.16,9.93000000000119
1160,2432.59,5.748522959928933
1161,2434.39,2.163006827366037
1162,2435.09,1.3012684047003016
1163,2435.52,4.716616754350301
1164,2437.08,3.329584739164609
1165,2438.21,5.45649789029504
1166,2440.08,5.972146321186257
1167,2442.02,4.260476266074718
1168,2443.28,6.49786154900513
1169,2445.1,1.8462574044157243
1170,2445.6,5.436513990376114
1171,2447.08,1.8961467889907595
1172,2447.6,5.357052043311278
1173,2449.08,1.6755403556780626
1174,2449.55,4.737918177109261
1175,2450.87,5.866024812161059
1176,2452.49,1.9531239388802926
1177,2453.0,6.4968397291189435
1178,2454.7,1.23489384102527
1179,2455.04,5.5476335877861285
1180,2456.58,2.054576271186183
1181,2457.16,4.1146308724834775
1182,2458.33,2.7033285276627095
1183,2459.06,5.553333333334295
1184,2460.53,7.916709628506235
1185,2462.59,7.58347826086943
1186,2464.63,7.034214704867234
1187,2466.59,1.5068341944568826
1188,2467.04,4.623797295243406
1189,2468.45,2.2779981965743774
1190,2469.15,5.015494112385463
1191,2470.7,1.5493598693005193
1192,2471.18,4.4735539102279525
1193,2472.53,1.9229725782896065
1194,2473.09,5.214971098265028
1195,2474.62,1.4796338486584466
1196,2475.05,5.064344963792095
1197,2476.51,2.4823414877668846
1198,2477.22,4.768941448893033
1199,2478.59,1.7759441987070435
1200,2479.09,5.176273544883889
1201,2480.55,1.9284461152872638
1202,2481.1,4.965520026373188
1203,2482.53,2.040221550855736
1204,2483.11,4.235411703779837
1205,2484.29,3.1791925465835105
1206,2485.14,4.084276527331658
1207,2486.25,3.042623780268045
1208,2487.07,5.742572643514173
1209,2488.64,7.162341650671851
1210,2490.62,4.200128847531628
1211,2491.76,8.892570584977545
1212,2494.12,4.231484814398685
1213,2495.23,5.144608846823122
1214,2496.55,1.9254098360647958
1215,2497.0,3.500297605208989
1216,2497.78,5.439977617506361
1217,2498.93,5.72982778415817
1218,2500.01,5.049539700804557
1219,2500.96,5.7496301103180825
1220,2501.94,5.951254649983202
1221,2502.92,10.748694622928534
1222,2504.69,2.2212246403550635
1223,2505.03,7.546931905125509
1224,2506.15,6.840476190477148
1225,2506.8,16.591460674155073
1226,2508.56,13.548490342924966
1227,2510.52,3.533715415021275
1228,2511.03,11.638186655748658
1229,2512.66,9.831896551724139
1230,2514.41,3.6711764705883265
1231,2515.14,6.361311475412176
1232,2516.03,8.981357485811035
1233,2517.22,1.6974822814726946
1234,2517.5,7.287056222362498
1235,2518.77,10.158043761397002
1236,2520.84,3.2470064065227207
1237,2521.67,4.089130434782271
1238,2522.77,6.909475920679421
1239,2524.66,1.8232581453633445
1240,2525.18,5.019831029186969
1241,2526.59,1.8481143956612036
1242,2527.1,5.029506346967958
1243,2528.48,2.25566660932432
1244,2529.11,4.7696551724135325
1245,2530.44,2.0867544163488896
1246,2531.02,4.622102762625309
1247,2532.29,2.931159217876898
1248,2533.1,5.423278116826504
1249,2534.6,7.246993842811589
1250,2536.55,2.2360503059131176
1251,2537.18,3.9608512042241655
1252,2538.32,2.4009557751492223
1253,2539.02,4.451486810551373
1254,2540.33,2.7542663940876704
1255,2541.15,3.8142622141796485
1256,2542.25,2.8415107179319157
1257,2543.05,5.640209241499367
1258,2544.61,7.102557285289619
1259,2546.57,5.602880375857453
1260,2548.08,7.195551109495447
1261,2550.01,8.234550977785727
1262,2552.15,6.935005417117689
1263,2554.02,6.221710261569353
1264,2555.79,4.059851024209414
1265,2557.01,5.208687299891875
1266,2558.43,6.561791273844314
1267,2559.96,9.328064516129771
1268,2562.03,9.086477462436644
1269,2564.23,7.284369490226563
1270,2566.11,4.189566787002329
1271,2567.24,2.9843498152390264
1272,2568.06,7.378365967770538
1273,2570.11,7.0904942965776385
1274,2572.21,7.568764607679288
1275,2574.52,6.920901314747962
1276,2576.57,5.168536585365044
1277,2578.08,4.110865087538945
1278,2579.23,2.8776642335765743
1279,2580.0,8.040215053762836
1280,2582.18,6.921055900622317
1281,2584.07,7.0750550550549915
1282,2586.09,3.9912424037800083
1283,2587.22,2.911125467528633
1284,2588.04,4.00560632085155
1285,2589.16,1.6980680087972222
1286,2589.64,5.242455089821267
1287,2591.11,1.7005458552297645
1288,2591.59,5.7417365269449405
1289,2593.2,3.0327444481284838
1290,2594.07,6.685256241786555
1291,2596.0,6.854151670951902
1292,2598.01,10.213850593138828
1293,2601.01,13.058461538461382
1294,2602.53,12.656186440676478
1295,2604.54,8.944131627056592
1296,2606.56,7.120610847814771
1297,2608.52,5.37744341995041
1298,2610.05,7.139215111263664
1299,2612.04,7.580204081633253
1300,2614.11,7.150664961635988
1301,2616.12,7.054895314057764
1302,2618.14,6.785825242718509
1303,2620.12,6.629873673572896
1304,2622.0,4.247030313410026
1305,2623.19,1.2057961783436832
1306,2623.52,5.419662821650466
1307,2625.0,6.335409565695642
1308,2626.69,1.7082551883168913
1309,2627.13,5.59784408084718
1310,2628.57,1.7112107623311468
1311,2629.02,4.9760447761191955
1312,2630.33,2.7789419544461493
1313,2631.07,5.414026745913199
1314,2632.5,7.8622160505658005
1315,2634.53,5.898100494860077
1316,2636.06,9.889157015379404
1317,2638.63,6.86717235901423
1318,2640.66,6.159452996562842
1319,2642.56,6.979467312348544
1320,2644.6,7.360974949221138
1321,2646.68,6.382462146149287
1322,2648.52,1.6411030478955628
1323,2649.0,5.227919986989692
1324,2650.52,7.3421367948074705
1325,2652.62,6.860189692799349
1326,2654.57,7.229795081966306
1327,2656.6,6.90510757242177
1328,2658.55,7.371334231804839
1329,2660.64,6.800747695460302
1330,2662.55,7.488216328652884
1331,2664.63,7.025481520040991
1332,2666.58,7.476990140113905
1333,2668.66,6.467766599598097
1334,2670.5,7.110895325872915
1335,2672.55,5.149353099730586
1336,2674.01,9.20690501600767
1337,2676.52,7.338442090877837
1338,2678.58,6.948240377062607
1339,2680.65,5.521369698785563
1340,2682.35,2.5597132616486276
1341,2683.14,4.685162873717973
1342,2684.59,1.6445098620784309
1343,2685.1,5.087550410754824
1344,2686.67,1.7307249660163864
1345,2687.2,4.937213565536205
1346,2688.7,1.521258191350123
1347,2689.14,5.1806805169311305
1348,2690.64,1.7531328320802004
1349,2691.14,1.3836065573773637
1350,2691.54,4.6030376388664305
1351,2692.86,2.610930825629521
1352,2693.63,4.9184138559708295
1353,2695.13,3.440347548944318
1354,2696.18,5.307604235607512
1355,2697.07,2.971431465224875
1356,2697.56,7.761912908241995
1357,2698.93,3.1778026449658836
1358,2699.59,5.513046704495698
1359,2700.88,2.6354838709670574
1360,2701.58,4.592057961015035
1361,2702.86,2.8589038785832814
1362,2703.67,4.947546736634396
1363,2705.1,1.9159322033896438
1364,2705.66,4.922776624621715
1365,2707.11,3.189162545860769
1366,2708.05,3.8606053080858107
1367,2709.21,2.943669843321386
1368,2710.07,6.9348418491483566
1369,2712.09,6.72653696498067
1370,2714.05,7.0278456591638
1371,2716.11,8.26709656513236
1372,2718.52,7.316663524975888
1373,2720.7,5.903967168263251
1374,2722.5,6.890680018631192
1375,2724.57,6.723508227258554
1376,2726.59,6.687919725893482
1377,2728.53,7.304570858282352
1378,2730.62,7.321365571258107
1379,2732.68,7.095108695652175
1380,2734.68,6.923067381831267
1381,2736.65,5.230636189813355
1382,2738.1,9.309515162520428
1383,2740.6,1.8321739130447183
1384,2741.03,3.3719373732821913
1385,2741.8,11.66766409779277
1386,2744.14,8.16511321169527
1387,2746.04,7.72456251161049
1388,2748.08,9.039470761188777
1389,2750.7,6.224734446130798
1390,2752.6,5.818242530756236
1391,2754.42,1.8280275426765746
1392,2755.0,5.58076662431162
1393,2756.79,2.7868456947992604
1394,2757.68,7.373062577704382
1395,2760.08,2.381852326078362
1396,2760.84,2.628633275398099
1397,2761.62,4.7832769453845545
1398,2763.02,5.490677966102339
1399,2764.57,2.1169972196476157
1400,2765.13,5.985073115859408
1401,2766.7,7.974168797954346
1402,2768.6,8.047451760493264
1403,2770.62,6.999164769743658
1404,2772.55,4.155321071825018
1405,2773.78,5.337232913071441
1406,2775.31,3.381064075427707
1407,2776.18,7.622891566265425
1408,2778.08,7.471863905325513
1409,2780.06,6.90294557097173
1410,2781.44,7.389643765902545
1411,2782.85,8.756371616679367
1412,2784.73,1.1679011099897627
1413,2785.02,5.526627785878542
1414,2786.36,2.68003329633754
1415,2787.07,5.7445692051138835
1416,2788.59,5.716559766763991
1417,2790.05,7.543398058250764
1418,2791.04,7.551711963424715
1419,2792.61,12.300834191553829
1420,2794.02,11.54830188679235
1421,2796.04,4.086984566680652
1422,2797.07,2.1636655211910836
1423,2797.63,5.06036649214632
1424,2798.96,6.536109730453279
1425,2800.65,2.030283072276813
1426,2801.18,5.407378082700897
1427,2802.61,1.7354819601500422
1428,2803.08,5.217468354430647
1429,2804.5,2.2288959660301892
1430,2805.11,4.350708909503979
1431,2806.31,2.606367521367655
1432,2807.02,6.069734480863901
1433,2808.64,7.833370122191638
1434,2810.62,5.742853672211632
1435,2812.13,7.632587917042178
1436,2814.19,6.580690564048299
1437,2816.0,9.581903143584741
1438,2818.7,6.276632366698213
1439,2820.58,6.5753846153847375
1440,2822.54,6.825814977973631
1441,2824.52,7.50336024218
1442,2826.65,6.712563323201942
1443,2828.55,6.020337581811332
1444,2830.23,6.688759663287705
1445,2832.1,8.683819165648785
1446,2834.5,7.390024213074563
1447,2836.66,6.487953180348187
1448,2838.62,7.157041939085107
1449,2840.73,6.440735118539803
1450,2842.54,5.546845637583826
1451,2844.06,4.2444188209034355
1452,2845.18,4.892519700173825
1453,2846.44,2.7264552661376857
1454,2847.06,6.8654673102233925
1455,2848.66,1.6004761904773974
1456,2849.07,1.7192741632185606
1457,2849.52,4.919153674833652
1458,2850.82,2.699921233999775
1459,2851.6,4.3408662843342025
1460,2852.93,1.9784653086242658
1461,2853.53,4.806577017113538
1462,2854.99,1.9423551518960491
1463,2855.57,4.732859387273667
1464,2856.98,2.444765702890691
1465,2857.68,5.166286459182011
1466,2859.18,3.1148134388639237
1467,2860.09,4.050118570742054
1468,2861.28,6.058675078863435
1469,2863.08,1.5671797418082987
1470,2863.53,5.459239904987994
1471,2865.07,1.6224856696189378
1472,2865.52,5.454305799648506
1473,2867.02,2.2686336049943234
1474,2867.65,4.864552482391797
1475,2869.01,2.2616216216211718
1476,2869.65,4.6467294956697
1477,2870.96,2.271543167912532
1478,2871.6,4.297259738050819
1479,2872.81,6.2743988881176005
1480,2874.55,6.984796320629267
1481,2876.18,10.478898916968944
1482,2878.57,7.609712413541911
1483,2880.61,6.188711144806255
1484,2882.5,1.8816157989225648
1485,2883.08,3.9064789778637334
1486,2884.29,5.607884267631933
1487,2886.01,4.7338738738720725
1488,2886.87,13.076781292987304
1489,2888.53,11.986836532096538
1490,2890.54,8.894566618166103
1491,2892.7,1.155412706354514
1492,2893.03,5.519494680850809
1493,2894.61,6.6724768255002695
1494,2896.55,1.8457894736833236
1495,2897.08,5.557131079966708
1496,2898.68,1.8388574250912442
1497,2899.21,4.213621103116765
1498,2900.45,2.246470588235538
1499,2901.12,4.384636207166145
1500,2902.43,2.2256302521011517
1501,2903.08,4.6346715328464025
1502,2904.43,2.291240731587826
1503,2905.09,4.337934710192441
1504,2906.33,2.6008549874274864
1505,2907.07,5.495785381025524
1506,2908.6,6.232841530054917
1507,2910.27,3.00044695564144
1508,2911.12,4.916962731899775
1509,2912.54,7.069721946376069
1510,2914.57,7.545978552277815
1511,2916.62,7.55053484602904
1512,2918.66,6.657231915975315
1513,2920.54,1.7987412587411375
1514,2921.08,4.205491391132762
1515,2922.36,2.1225872224742437
1516,2923.01,4.505188532252735
1517,2924.36,2.219792027729146
1518,2925.02,4.433536879319277
1519,2926.32,2.547125788250976
1520,2927.05,5.198832812756864
1521,2928.55,1.9706649616365814
1522,2929.13,1.3534403305262892
1523,2929.53,4.144888333592899
1524,2930.77,2.544466123828485
1525,2931.54,4.111256560667657
1526,2932.78,6.4246436888676435
1527,2934.71,1.8902250375061238
1528,2935.25,4.940121375590341
1529,2936.65,1.539391124870415
1530,2937.08,5.49990140114239
1531,2938.61,1.820829335160225
1532,2939.12,4.666679193713506
1533,2940.43,2.119823008850954
1534,2941.01,3.2801128349775173
1535,2941.91,8.813593932322053
1536,2944.16,8.305356265356117
1537,2946.2,8.582319660538811
1538,2948.55,6.826472081218213
1539,2950.57,5.045635642254285
1540,2952.02,7.3061306532660755
1541,2954.1,4.369551122194714
1542,2955.29,5.7734332425074895
1543,2956.84,6.586790660862105
1544,2958.5,2.1438855054819297
1545,2959.03,6.379663481511133
1546,2960.58,8.641924245492701
1547,2962.72,1.4696009975081314
1548,2963.03,7.431070559609695
1549,2964.5,9.762950108459751
1550,2966.02,5.128523489932338
1551,2966.87,9.974394341291681
1552,2968.71,2.0836686903720123
1553,2969.2,5.988792270532351
1554,2970.69,1.7025715829282817
1555,2971.15,4.941699184107507
1556,2972.5,2.209154300017545
1557,2973.1,5.897224709041741
1558,2974.7,6.985413870246638
1559,2976.54,8.084491297326597
1560,2978.73,13.501543624161009
1561,2982.5,9.034830917875286
1562,2984.53,7.978406435548534
1563,2986.59,5.193396851697665
1564,2988.08,4.301466530403808
1565,2989.29,6.949228224916968
1566,2991.14,1.6485905913481782
1567,2991.57,4.7284355828213105
1568,2992.79,6.2850028796309845
1569,2994.41,2.764490758947204
1570,2995.11,6.108984771572647
1571,2996.62,6.668004788507872
1572,2998.29,4.24123411465659
1573,2999.1,5.714274661509694
1574,2999.94,6.233748458692189
1575,3000.81,11.807669902912744
1576,3002.54,11.010726978998
1577,3004.1,6.218360655736926
1578,3004.97,12.385753698520466
1579,3006.74,1.9346124763733015
1580,3007.03,8.889681697612247
1581,3008.36,5.811883116881054
1582,3009.18,6.094755244757854
1583,3010.03,8.537412192164993
1584,3011.24,6.46314516129131
1585,3012.31,11.47186046511741
1586,3014.34,5.266349151367639
1587,3015.19,8.37535176758929
1588,3016.53,3.6380505679732624
1589,3017.09,6.076612021858276
1590,3018.03,6.094847026468234
1591,3019.02,10.367573079536621
1592,3020.72,2.3584162203544023
1593,3021.07,9.989458186100043
1594,3022.52,13.271392499071547
1595,3024.54,3.833358778627055
1596,3025.11,6.995776372973471
1597,3026.12,5.164838709677071
1598,3026.93,9.31949887808731
1599,3028.34,4.049223181256582
1600,3029.06,7.279536317342565
1601,3030.51,2.185905019786494
1602,3031.04,5.878283712784589
1603,3032.54,7.744444444445133
1604,3034.59,5.774647112740468
1605,3036.13,7.422653288740383
1606,3038.09,3.9695774647885935
1607,3039.13,2.544675476098296
1608,3039.78,4.960981595091036
1609,3041.06,2.3400056721502334
1610,3041.67,4.7596501190693585
1611,3042.94,2.331476413396155
1612,3043.57,4.689504627108537
1613,3044.83,7.152392143108605
1614,3046.8,1.1229370629368653
1615,3047.11,1.7520192307684503
1616,3047.6,4.121576227390507
1617,3048.75,3.0992333557502167
1618,3049.63,4.019490550533596
1619,3050.79,4.136030698135196
1620,3051.98,3.146333267050959
1621,3052.77,5.829340369392747
1622,3053.85,6.166073752711731
1623,3054.81,9.562735978111842
1624,3056.37,5.760842911878873
1625,3057.15,11.311573604060646
1626,3058.69,13.762246220303464
1627,3060.53,11.236453201970443
1628,3062.53,8.05850920609679
1629,3064.56,7.00256453856898
1630,3066.67,1.0985142058684116
1631,3067.0,4.459180633147598
1632,3068.34,2.445069124423242
1633,3069.08,4.676382816083407
1634,3070.5,2.38846902518086
1635,3071.22,4.523985419198414
1636,3072.6,1.850322580644981
1637,3073.16,17.924463197375015
1638,3078.52,10.543141361255918
1639,3080.66,6.706866513842886
1640,3082.5,1.9391626308386882
1641,3083.08,5.149628425453461
1642,3084.63,6.963570965650455
1643,3086.66,6.949689137268862
1644,3088.58,7.3663994115485005
1645,3090.54,11.234587813621069
1646,3092.59,7.034267352184376
1647,3094.56,7.216485963214376
1648,3096.67,6.721600533511425
1649,3098.59,5.701360110324696
1650,3100.18,6.89124343257476
1651,3102.08,7.060062893082749
1652,3104.03,7.677346903570355
1653,3106.17,6.843720930232685
1654,3108.13,6.37602409638517
1655,3110.0,8.773560039050414
1656,3112.55,6.905373134328421
1657,3114.53,5.316835970024916
1658,3116.05,7.435873743607697
1659,3118.09,9.048109266202598
1660,3120.55,2.4916339869269946
1661,3121.04,9.934599142197726
1662,3122.71,2.176720192693314
1663,3123.02,9.333683135973477
1664,3124.33,6.156455696203598
1665,3125.17,9.76638087712266
1666,3126.58,3.5281978798583133
1667,3127.14,8.503193392980712
1668,3128.52,5.639448010268413
1669,3129.49,6.925398412232778
1670,3130.77,5.726074766355496
1671,3131.94,12.946800108195559
1672,3134.5,6.418544924463111
1673,3135.79,5.355867939127749
1674,3136.89,4.918253968255381
1675,3137.84,5.175506158005708
1676,3138.78,8.127455830388463
1677,3140.07,4.615734563520342
1678,3140.8,7.108435013260209
1679,3141.99,6.008461538462457
1680,3143.06,5.476391509435145
1681,3144.07,5.704754754753663
1682,3145.02,5.969879275655351
1683,3146.01,5.151416174938806
1684,3146.84,12.216735521946907
1685,3148.71,2.4407375271156684
1686,3149.09,9.559040511725582
1687,3150.6,2.4711080428034617
1688,3151.0,9.59365439093473
1689,3152.52,12.636060606061852
1690,3154.55,3.476190476190476
1691,3155.05,6.223599680382649
1692,3155.94,6.866249511145875
1693,3156.94,7.0983098591556155
1694,3158.07,5.195714285713454
1695,3158.98,9.24770770770749
1696,3160.52,12.978177339901801
1697,3162.71,1.584813278008977
1698,3163.05,6.889021872695056
1699,3164.52,11.192500000001388
1700,3165.4,10.356582827407584
1701,3166.78,4.361556982343499
1702,3167.53,6.162723735407403
1703,3168.79,7.844134217066511
1704,3170.7,1.209218472470316
1705,3171.03,4.910126582278151
1706,3172.38,2.8961150298417024
1707,3173.16,4.365010130780313
1708,3174.32,3.025536105032619
1709,3175.13,4.370218818381016
1710,3176.3,3.0604715672673564
1711,3177.15,4.80420057403388
1712,3178.51,1.9609224011703017
1713,3179.08,5.6304743083006406
1714,3180.75,2.4985999694989633
1715,3181.51,4.374193548386803
1716,3182.86,2.238242333582825
1717,3183.55,4.275189756247951
1718,3184.84,2.2650583657582555
1719,3185.5,4.379696376101798
1720,3186.77,2.7524922760040544
1721,3187.54,4.407747158112363
1722,3188.77,2.9803091557674604
1723,3189.61,4.131525480931745
1724,3190.78,6.71704697986526
1725,3192.69,1.2965442404002854
1726,3193.06,5.657259929613318
1727,3194.67,1.2427053222237885
1728,3195.02,5.369260521384317
1729,3196.53,2.0710533707854593
1730,3197.1,4.984733475480211
1731,3198.46,2.3156851108391274
1732,3199.1,5.595178479047916
1733,3200.66,1.2513832948172139
1734,3201.02,5.9308326476881295
1735,3202.73,1.3526833915531815
1736,3203.13,4.918372093022693
1737,3204.56,2.095614154474828
1738,3205.15,5.833658370268895
1739,3206.79,2.6999212340013488
1740,3207.57,5.1162005785920925
1741,3209.07,3.0737772397096217
1742,3210.01,6.457558636966345
1743,3212.02,6.49438202247191
1744,3214.02,4.783721353771557
1745,3215.48,8.729380530973943
1746,3218.07,7.08560773012375
1747,3220.07,7.465355135411021
1748,3222.17,6.657621319296189
1749,3224.09,6.508910133843458
1750,3226.01,8.544620932840997
1751,3228.52,7.131393402264705
1752,3230.58,6.957489333771678
1753,3232.59,5.27989445910284
1754,3234.11,3.604142489900981
1755,3235.07,1.8509990205672826
1756,3235.54,5.8235726863628186
1757,3237.02,1.9851485148514851
1758,3237.52,5.983586530931801
1759,3239.04,1.7757271644837558
1760,3239.54,5.454282115869658
1761,3241.09,3.326086099244293
1762,3242.05,7.383690360271388
1763,3244.2,6.214009508716814
1764,3246.04,6.946491442543207
1765,3248.15,8.366665641340283
1766,3250.68,6.4375728751159675
1767,3252.63,6.504705882353123
1768,3254.57,6.642675521820958
1769,3256.54,6.830981681540507
1770,3258.58,5.854726661063676
1771,3259.01,20.599497907949548
1772,3260.53,5.676794682420035
1773,3261.0,17.770890947968425
1774,3262.52,5.0369620253166465
1775,3263.0,15.597744360902258
1776,3264.5,5.602499999999623
1777,3265.04,16.46835308796158
1778,3266.63,5.561645569617581
1779,3267.16,11.857848101266969
1780,3268.29,7.000608387478209
1781,3269.0,15.331861292236537
1782,3270.55,5.581723329422706
1783,3271.12,11.198823529414982
1784,3272.26,5.559999999999459
1785,3272.82,16.716674570243576
1786,3274.51,6.188823529408369
1787,3275.14,13.05759932848657
1788,3276.53,4.590981210855789
1789,3277.05,11.63580136626331
1790,3278.36,6.055474339036248
1791,3279.05,11.228180867746833
1792,3280.32,6.120220356768584
1793,3281.01,10.329707724422516
1794,3282.18,5.546753381894821
1795,3282.81,17.012793885080413
1796,3284.72,16.886476738110417
1797,3286.63,16.68314960630018
1798,3288.51,5.103404029689866
1799,3289.08,6.613547671840693
1800,3289.79,20.116596082583378
1801,3292.04,16.99489432703099
1802,3294.63,2.0542412451365424
1803,3295.05,4.901797505501294
1804,3296.1,3.590128388018655
1805,3296.78,5.505857614899369
1806,3297.78,5.865246224555502
1807,3298.77,6.285106802497211
1808,3299.83,6.660000000000764
1809,3300.94,5.847586529465346
1810,3301.97,5.948841010401983
1811,3303.06,8.55291044776243
1812,3304.57,10.862566957567358
1813,3306.54,10.95845827439963
1814,3308.63,2.4627765521579024
1815,3309.06,8.231799628942692
1816,3310.52,10.816104039844578
1817,3312.62,2.300480404551288
1818,3313.1,6.840000000000259
1819,3314.54,10.097362419434205
1820,3316.68,1.8521344663849588
1821,3317.07,7.109813930097023
1822,3318.56,9.851121314645262
1823,3320.69,7.2923854629804366
1824,3322.56,6.940748287957304
1825,3324.54,7.157298616761344
1826,3326.62,6.661938542008197
1827,3328.55,1.6344011544012162
1828,3329.03,3.6874360212455266
1829,3330.11,7.808445475637289
1830,3332.35,2.3494786096259235
1831,3333.02,4.43327065144469
1832,3334.28,2.823275696445478
1833,3335.11,3.98418250950515
1834,3336.29,2.672285298399521
1835,3337.07,4.7837438187903825
1836,3338.48,2.347060518732174
1837,3339.17,4.620553622271065
1838,3340.54,1.6561113755362586
1839,3341.03,5.482053872052757
1840,3342.64,1.315779395475072
1841,3343.03,5.745050761420705
1842,3344.73,1.1271014492751137
1843,3345.06,1.8702112337980261
1844,3345.61,4.33294959452927
1845,3346.89,2.196146527117339
1846,3347.54,4.529969846056673
1847,3348.88,2.176644844517562
1848,3349.51,4.968848082833869
1849,3350.96,4.238806262230982
1850,3352.19,10.417997698504221
1851,3354.15,13.452162799841451
1852,3356.1,6.158660395719522
1853,3357.15,1.7442891335572266
1854,3357.53,6.864285714284507
1855,3359.08,1.9506676449008855
1856,3359.6,4.952814371257949
1857,3360.96,5.958966005666122
1858,3362.59,1.8728786453425335
1859,3363.08,5.0864077669910035
1860,3364.38,2.8451245895306867
1861,3365.11,5.482426127527572
1862,3366.51,7.503130608174094
1863,3368.39,11.156853932585976
1864,3370.53,3.1939087825104866
1865,3371.01,11.014999999999144
1866,3372.65,10.957040358744136
1867,3374.19,6.051641137853515
1868,3374.99,12.704427775396754
1869,3376.7,1.8570889936241666
1870,3377.06,8.314195617316214
1871,3378.72,1.4644586866509437
1872,3379.09,6.052604856510911
1873,3380.7,1.128515889660929
1874,3381.03,5.627255936675082
1875,3382.65,1.2322046714834638
1876,3383.0,5.573059663437603
1877,3384.57,1.5834511434513399
1878,3385.01,4.888354010134216
1879,3386.36,2.367861771057844
1880,3387.0,5.712226345084313
1881,3388.51,3.781870773852314
1882,3389.08,10.584929577466943
1883,3390.51,13.25014243126744
1884,3392.73,1.6821052631586146
1885,3393.07,7.035371024734025
1886,3394.54,8.144302788845827
1887,3396.26,8.31573617588109
1888,3398.18,7.584641285632435
1889,3400.14,7.231571574992172
1890,3402.17,6.790749574105105
1891,3404.08,7.0015000851362705
1892,3406.05,7.855471314942599
1893,3408.27,6.350893125940601
1894,3410.08,6.869819639278685
1895,3412.04,7.006685449122405
1896,3414.05,6.993504388926465
1897,3416.03,6.987531172069826
1898,3418.03,7.605871743485636
1899,3420.2,6.796364094806875
1900,3422.13,6.764669338676781
1901,3424.06,3.43526601152242
1902,3425.03,2.0351485148504755
1903,3425.58,5.1781540697669675
1904,3426.97,2.442178217822926
1905,3427.63,4.973170197223979
1906,3428.96,2.378451657697792
1907,3429.62,4.749609187521166
1908,3430.95,2.231248135257233
1909,3431.59,4.538126868149163
1910,3432.89,2.4744135188868066
1911,3433.6,4.852879920278578
1912,3434.99,2.14859960552388
1913,3435.61,4.832301534355027
1914,3436.99,2.381985649925932
1915,3437.67,4.719855389272414
1916,3439.01,2.2008111702115585
1917,3439.64,4.633253012048767
1918,3440.96,2.4497083819357073
1919,3441.66,4.477610708873484
1920,3442.93,2.653373193822387
1921,3443.69,4.808755020079938
1922,3445.06,2.4004610808132787
1923,3445.75,4.0331836195503525
1924,3446.91,5.815264220801397
1925,3448.56,10.823430810973974
1926,3450.52,9.121290172334389
1927,3452.55,7.7992307692297915
1928,3454.58,4.079262899263906
1929,3455.76,8.396002664888801
1930,3458.16,7.106157885524375
1931,3460.12,7.210000000000133
1932,3462.08,7.166059782608632
1933,3464.1,6.884774851317101
1934,3466.04,7.5034433722698015
1935,3468.16,6.880410396717864
1936,3470.09,7.301921434670248
1937,3472.14,6.567705576956497
1938,3474.01,7.438778474743698
1939,3476.15,7.103710077775813
1940,3478.19,6.510050761421835
1941,3480.03,6.900347096561178
1942,3482.02,6.942339373970346
1943,3484.02,7.222574583813823
1944,3486.1,7.140565603419738
1945,3488.16,3.7912970711294514
1946,3489.24,3.126614214076981
1947,3490.11,7.039611971462715
1948,3492.06,4.077639580827581
1949,3493.2,1.0932238504309209
1950,3493.51,5.419830508473674
1951,3495.04,2.15682407887876
1952,3495.64,4.584518940067579
1953,3496.89,6.638383425217655
1954,3498.7,1.1195228555825398
1955,3499.0,5.497610619469164
1956,3500.46,2.0399999999998624
1957,3501.0,5.196781775447816
1958,3502.4,8.365238267802138
1959,3504.65,5.642367000770303
1960,3506.1,3.903581357318218
1961,3507.06,4.940787980668435
1962,3508.25,9.8685380116954
1963,3510.37,12.481353383458957
1964,3512.56,2.881708478882185
1965,3513.06,6.910419580419202
1966,3514.39,2.8433509295401285
1967,3515.03,5.629640730854677
1968,3516.41,2.5228390318866376
1969,3517.06,4.245460458747199
1970,3518.25,8.362280402523982
1971,3520.6,7.950560989112862
1972,3522.71,6.655073272854677
1973,3524.55,6.919810074317986
1974,3526.54,6.970178926441352
1975,3528.54,6.885169660679533
1976,3530.51,7.120151489648142
1977,3532.53,7.018400802944129
1978,3534.53,6.9603174603174605
1979,3536.53,7.14766149223823
1980,3538.57,7.1066922307426905
1981,3540.6,6.6651867219927805
1982,3542.51,7.4519237749511715
1983,3543.02,19.701818181817945
1984,3544.54,14.30636363636519
1985,3545.21,20.659369369368786
1986,3546.5,7.856009852218687
1987,3547.09,22.550952380953536
1988,3548.51,10.522263797939267
1989,3549.21,21.51494505494559
1990,3550.67,5.305054945056821
1991,3551.03,21.900958904106382
1992,3552.52,7.220769230772715
1993,3553.01,24.60956043955481
1994,3554.68,5.452417582422675
1995,3555.05,22.578251366119687
1996,3556.59,5.700804694049605
1997,3557.01,21.297138103160417
1998,3558.59,5.822976588626546
1999,3559.02,22.24551433389694
2000,3560.65,5.484858934167192
2001,3561.08,18.27134570766005
2002,3562.53,25.399629629629406
2003,3564.55,5.812986811482228
2004,3565.01,19.167058823529185
2005,3566.53,25.1837903804723
2006,3568.67,5.460000000000432
2007,3569.13,16.53875536480516
2008,3570.54,5.484224751069828
2009,3571.01,17.701689141234706
2010,3572.53,5.477102272724941
2011,3573.0,17.852901849219975
2012,3574.53,5.65818431911967
2013,3575.03,16.620073382252233
2014,3576.54,5.5
2015,3577.04,16.14812877263622
2016,3578.5,5.808884462153587
2017,3579.03,16.54984063744761
2018,3580.54,5.050818363273852
2019,3581.0,16.891445783134742
2020,3582.53,5.620220440879159
2021,3583.04,16.449839357432328
2022,3584.53,5.651129032255444
2023,3585.04,16.8300000000022
2024,3586.57,6.811482701809032
2025,3587.08,11.40992743105994
2026,3588.04,13.37424620873984
2027,3588.97,12.963843888072212
2028,3590.52,10.623826247688749
2029,3592.41,10.500769230771173
2030,3594.28,14.318832271762092
2031,3596.55,3.418464818763096
2032,3597.09,10.268596948269087
2033,3598.65,2.639010629598568
2034,3599.02,9.726774193549158
2035,3600.4,5.778330683624295
2036,3601.23,2.5186643437855523
2037,3601.6,7.621195692538236
2038,3602.76,10.380087565673374
2039,3604.69,1.3714475068374843
2040,3605.02,6.157016129033064
2041,3606.55,1.792267895109053
2042,3607.04,6.158022598870543
2043,3608.65,7.72244609956894
2044,3610.61,7.558933536469385
2045,3612.57,7.2734300658003805
2046,3614.63,7.1551201965249795
2047,3616.6,7.014106364429143
2048,3618.54,7.027124535944136
2049,3620.53,5.2224140256238005
2050,3622.01,7.517858347384952
2051,3624.14,6.955751911639892
2052,3626.1,7.230256064690669
2053,3628.15,7.118580447022692
2054,3630.15,7.069158473587671
2055,3632.17,8.331332449452656
2056,3634.56,8.721874694078029
2057,3637.09,1.4315384615378521
2058,3637.56,5.696288830922456
2059,3638.81,8.858470675575866
2060,3640.69,1.7719985825649778
2061,3641.08,6.266848112379435
2062,3642.54,2.0270570956488445
2063,3643.08,4.800522496371418
2064,3644.37,2.7958265139116203
2065,3645.12,5.6591831594106
2066,3646.65,7.109970326409908
2067,3648.53,7.573100501579045
2068,3650.53,5.908797127468246
2069,3652.13,6.884436557231988
2070,3654.01,8.005761624798971
2071,3656.19,6.63483108699431
2072,3658.02,4.19357142857096
2073,3659.16,1.7260128273659807
2074,3659.63,5.245431034483028
2075,3661.05,2.3184045024107345
2076,3661.68,4.684859017557036
2077,3662.96,6.40508068806526
2078,3664.71,1.1122743682317213
2079,3665.01,5.731616766466931
2080,3666.55,2.205848092020023
2081,3667.14,4.632269252285137
2082,3668.36,2.6564002235879065
2083,3669.06,5.4392593964082785
2084,3670.5,7.940114176974101
2085,3672.56,5.901245196003004
2086,3674.08,8.53656108597292
2087,3676.31,7.988060941828092
2088,3678.1,9.943300330033283
2089,3680.04,8.578987341771924
2090,3682.1,7.321979776476849
2091,3684.1,4.061604325474672
2092,3685.21,2.9468272951106
2093,3686.02,4.0763281667562135
2094,3687.13,1.662300052274047
2095,3687.59,4.81083215796791
2096,3688.91,6.622955665025227
2097,3690.73,1.3857393850654771
2098,3691.1,6.114756575266292
2099,3692.71,1.7464487369994077
2100,3693.03,8.18062937062903
2101,3694.34,13.829196608801226
2102,3696.3,4.842637517630351
2103,3697.07,5.326208017334311
2104,3697.9,6.294273995078713
2105,3698.78,11.216205250594378
2106,3700.39,5.5856292998783355
2107,3701.18,6.415662251657991
2108,3702.07,6.16645824763237
2109,3702.93,4.501676367871726
2110,3703.59,7.874460338099613
2111,3704.93,2.689484382747426
2112,3705.5,5.578192189557603
2113,3706.8,6.634055878491575
2114,3708.54,2.174867094408526
2115,3709.12,4.356915783603245
2116,3710.27,3.1911849225607316
2117,3711.11,5.739691876749801
2118,3712.62,7.403020134229224
2119,3714.57,7.18503721183457
2120,3716.5,6.106196019526502
2121,3718.1,7.396997245180019
2122,3720.07,7.5429195088672785
2123,3722.19,7.0508115543321574
2124,3724.16,3.88925171263014
2125,3725.23,1.5896548004308941
2126,3725.66,4.946751269035262
2127,3726.99,1.9216995755682702
2128,3727.5,5.043703703704251
2129,3728.84,6.797210574292441
2130,3730.66,1.4727318156592042
2131,3731.05,6.091350899980205
2132,3732.66,3.045071868586327
2133,3733.01,12.766788990824828
2134,3734.63,2.4436429872498477
2135,3735.07,5.964411085450434
2136,3736.3,3.1757459230922636
2137,3737.09,5.2969566800148336
2138,3738.51,7.356774541531016
2139,3740.5,5.7036625811101755
2140,3742.04,7.992040698790344
2141,3744.1,7.381823427582581
2142,3746.0,4.571523472099202
2143,3747.25,1.6519230769224091
2144,3747.7,4.438575026989135
2145,3748.9,6.8396930073895845
2146,3750.68,2.099834368530919
2147,3751.02,9.814022346370272
2148,3752.51,3.8025099075297226
2149,3753.01,10.330044345897308
2150,3754.36,5.897531854648566
2151,3755.09,12.434831460671969
2152,3756.64,10.843569873748779
2153,3758.08,5.622361623616524
2154,3758.79,13.798651685395301
2155,3760.51,3.92940102947883
2156,3761.0,12.019031078612175
2157,3762.53,14.77139208173691
2158,3764.53,3.450128876357706
2159,3765.02,10.920054009141587
2160,3766.53,15.740040522285284
2161,3768.56,11.669187562688391
2162,3770.5,12.37062275839529
2163,3772.6,7.112345645728172
2164,3774.01,9.073859610758335
2165,3776.13,7.722652832304135
2166,3778.16,3.457857142857344
2167,3779.1,5.392682431185284
2168,3780.53,6.860513814832852
2169,3782.01,5.725986984813867
2170,3783.14,2.4387635054030814
2171,3783.67,6.126737464417954
2172,3785.1,2.07729466718646
2173,3785.63,5.573222748814467
2174,3787.08,1.8429308005426763
2175,3787.6,5.234725968926978
2176,3789.07,1.6618850380381767
2177,3789.54,5.248829465187512
2178,3791.03,1.9813197969541216
2179,3791.59,5.004048460373806
2180,3793.01,2.2047375437415
2181,3793.64,4.531986301369798
2182,3794.91,2.976679667628123
2183,3795.75,3.9229255774162715
2184,3796.85,2.4039544513460163
2185,3797.52,4.761372549019347
2186,3798.85,2.3277897574134894
2187,3799.51,4.935315422546734
2188,3800.9,2.4812772585671743
2189,3801.59,4.150638586956781
2190,3802.76,6.111859296481645
2191,3804.5,2.172335061684784
2192,3805.09,4.799641062454125
2193,3806.39,2.297489177490458
2194,3807.01,5.11180626365582
2195,3808.38,2.755900962861008
2196,3809.15,4.031900359527867
2197,3810.28,2.8390824129132204
2198,3811.08,5.325487614758424
2199,3812.56,1.6261630946167727
2200,3813.01,5.812192448232678
2201,3814.62,6.975473265271004
2202,3816.56,4.727330924110034
2203,3817.88,3.3611816734479927
2204,3818.8,6.797168866636161
2205,3820.34,5.902165660051497
2206,3821.13,11.036252821670995
2207,3822.55,5.161902967497795
2208,3823.19,10.98264150943499
2209,3824.55,20.896276130286676
2210,3827.07,14.012759022119273
2211,3828.51,4.5685094982929115
2212,3829.06,11.253721035893204
2213,3830.5,5.37635861376286
2214,3831.13,11.544163871584818
2215,3832.54,4.804770500259453
2216,3833.09,12.62207951070368
2217,3834.55,4.717411036616495
2218,3835.09,5.870839694655075
2219,3835.77,8.610961727185185
2220,3836.8,13.53183486238458
2221,3838.13,5.800186915886572
2222,3838.79,11.170746268658103
2223,3840.11,5.611832061069488
2224,3840.76,12.086426047449535
2225,3842.17,5.639784791966013
2226,3842.86,13.396559088752518
2227,3844.51,4.339784524975363
2228,3845.03,10.389040826363148
2229,3846.27,6.51810691515616
2230,3847.05,11.479047619044856
2231,3848.41,5.859926199263866
2232,3849.15,11.644333925399506
2233,3850.67,2.530978212538348
2234,3851.0,8.73791720569265
2235,3852.17,5.640313901345432
2236,3852.9,13.56598417868631
2237,3854.6,13.368166732518809
2238,3856.53,4.085237711522453
2239,3857.11,9.970782818145835
2240,3858.53,11.437980399019498
2241,3860.36,9.11710296684021
2242,3862.06,4.042881836214129
2243,3862.83,8.807399003874012
2244,3864.54,9.484428073934534
2245,3866.43,8.680000000001504
2246,3868.11,5.939167927381905
2247,3869.0,6.481134102664996
2248,3869.93,5.529244510607583
2249,3870.77,11.821061946902299
2250,3872.58,12.543386204353114
2251,3874.5,11.41668285912651
2252,3876.34,5.29716899892311
2253,3877.17,5.650196806536298
2254,3878.03,5.565381604696298
2255,3878.84,7.189354838709549
2256,3879.86,6.106727739098925
2257,3880.8,11.760868955849276
2258,3882.68,2.278976545843024
2259,3883.04,8.647297297296713
2260,3884.39,14.878296639629573
2261,3886.58,3.364477611941738
2262,3887.09,6.4083604135894845
2263,3888.07,5.694437434278795
2264,3888.98,5.26850267379633
2265,3889.81,6.669926144756159
2266,3890.83,12.408351044337643
2267,3892.74,1.982049861496859
2268,3893.06,9.462949438203614
2269,3894.57,11.753640256958738
2270,3896.42,12.01653440116573
2271,3898.28,4.945704989153896
2272,3899.05,11.413290548422125
2273,3900.72,1.9824726388340068
2274,3901.0,5.710846359130155
2275,3901.85,6.011981738249661
2276,3902.84,5.546910978293918
2277,3903.81,5.800677290838176
2278,3904.78,6.321455301455188
2279,3905.8,6.8732913072307396
2280,3906.95,5.498478057891266
2281,3907.92,6.095479876160581
2282,3909.0,5.7280620155039825
2283,3909.98,5.9804724409434815
2284,3910.99,5.985369458129373
2285,3912.0,5.5815505168379635
2286,3912.93,10.024458077711614
2287,3914.57,12.240328068043869
2288,3916.3,6.076850393698401
2289,3917.18,6.4561823802182365
2290,3918.13,5.208463285388156
2291,3918.91,12.349596273291553
2292,3920.72,2.368928571429409
2293,3921.08,8.174075403951008
2294,3922.36,10.217741935483872
2295,3924.11,5.983268776568854
2296,3924.85,10.58754060324768
2297,3926.18,5.291019588149609
2298,3926.8,16.858321013726425
2299,3928.69,17.198987341770692
2300,3930.62,3.8721372854919
2301,3931.06,11.261371629543682
2302,3932.21,5.859126213591498
2303,3932.79,18.311969519342426
2304,3934.66,18.322089227421106
2305,3936.66,11.850950048972203
2306,3938.08,5.645831370704037
2307,3938.78,11.092187063749567
2308,3940.17,5.845771238726425
2309,3940.89,11.3138457877228
2310,3942.28,6.262154065620393
2311,3943.05,10.329097888673685
2312,3944.31,6.134738400789886
2313,3945.04,12.880880121396057
2314,3946.54,4.111528925622062
2315,3947.01,11.67591775325885
2316,3948.38,5.799962370647494
2317,3949.1,11.416905311778724
2318,3950.54,16.844636871509397
2319,3952.65,16.772787674530274
2320,3954.69,2.661463414635508
2321,3955.01,9.513333333332014
2322,3956.19,5.856672719019518
2323,3956.94,28.301058081945776
2324,3960.59,4.809460379192396
2325,3961.17,10.944457831324703
2326,3962.5,4.9759255202625345
2327,3963.04,9.84352941176453
2328,3964.06,7.485663716816308
2329,3964.82,14.934514106583554
2330,3966.51,4.159809160303414
2331,3967.02,9.984367816090316
2332,3968.24,5.378743718593896
2333,3968.87,16.413990610329762
2334,3970.73,16.462861095738624
2335,3972.5,6.045683453238256
2336,3973.15,10.812857142857816
2337,3974.32,6.456016713092433
2338,3975.01,11.43542155816419
2339,3976.28,6.3347580645142605
2340,3977.02,10.194267912771307
2341,3978.18,5.4713302034459295
2342,3978.8,16.93957783640837
2343,3980.7,16.21873417721665
2344,3982.52,6.084657534245234
2345,3983.18,10.67512424075181
2346,3984.33,6.581003307607834
2347,3985.04,13.539426365140987
2348,3986.5,4.632167182664287
2349,3987.03,9.804513817806622
2350,3988.16,5.536542056075725
2351,3988.79,16.532833246209176
2352,3990.66,16.819785522789356
2353,3992.52,5.516166219840293
2354,3993.13,13.784658418504407
2355,3994.65,5.525550105115837
2356,3995.13,13.618373983737605
2357,3996.35,6.554022662890037
2358,3997.04,10.714727363683696
2359,3998.3,6.188354430378028
2360,3999.02,10.142025316454289
2361,4000.2,5.57471497070103
2362,4000.82,17.033143471248884
2363,4002.7,16.737744994732267
2364,4004.58,5.91477707006239
2365,4005.24,11.683386581471284
2366,4006.54,5.047179487178996
2367,4007.1,13.121341853035469
2368,4008.56,4.081680327871064
2369,4009.03,11.130248447204812
2370,4010.3,6.168749999998397
2371,4011.0,10.65874934314079
2372,4012.2,5.878766473381774
2373,4012.86,11.530849947531683
2374,4014.16,5.673183925812232
2375,4014.81,16.234034003092304
2376,4016.67,13.882234636871678
2377,4018.15,5.314370179949696
2378,4018.76,15.938302900105269
2379,4020.52,5.670367393801628
2380,4021.11,11.102088285229893
2381,4022.28,6.997046223222288
2382,4023.02,15.530457368717034
2383,4024.66,19.03999999999966
2384,4026.7,6.5623048327133136
2385,4027.24,13.809800796815143
2386,4028.5,5.057568321248962
2387,4029.04,13.014502617803302
2388,4030.51,5.0459128065370065
2389,4031.06,32.03750823271366
2390,4034.53,4.997897633461413
2391,4035.07,33.067168141589136
2392,4036.5,10.62904761905217
2393,4037.01,32.42649402389868
2394,4038.56,7.387368421053548
2395,4039.0,32.88075313807531
2396,4040.5,11.775411255410843
2397,4041.02,40.951270903014304
2398,4042.59,9.723948126797449
2399,4043.02,35.16740515933275
2400,4044.5,12.8090353697804
2401,4045.01,33.510057306585345
2402,4046.5,14.572500000006237
2403,4047.01,41.25265017667844
2404,4048.51,14.50059701492282
2405,4049.13,31.62428571428245
2406,4050.54,10.455835694056658
2407,4051.01,33.68884120171674
2408,4052.51,13.700128755357452
2409,4053.12,34.278620689654765
2410,4054.64,7.613502538073252
2411,4055.02,29.43969773299784
2412,4056.5,10.618832487313654
2413,4057.03,29.33445420326259
2414,4058.51,8.938275862064984
2415,4059.0,26.482436604193463
2416,4060.51,10.489328859054906
2417,4061.1,27.27319587628866
2418,4062.6,7.0371681415945195
2419,4063.0,26.574945054944738
2420,4064.52,8.514017467253018
2421,4065.01,26.565309734509114
2422,4066.52,10.799309576839672
2423,4067.13,26.144030668127055
2424,4068.63,6.664454244764868
2425,4069.01,26.648734739174518
2426,4070.52,9.353529411768237
2427,4071.05,27.444955752211428
2428,4072.61,6.396160164268959
2429,4073.0,20.752616632863287
2430,4074.28,11.974817813761652
2431,4075.02,13.56468750000235
2432,4076.28,6.398233438484026
2433,4077.0,15.533191489361865
2434,4078.73,16.92332971211215
2435,4080.58,5.40501632209056
2436,4081.17,12.481906873615547
2437,4082.51,4.9759255202625345
2438,4083.05,11.34537886872786
2439,4084.31,6.464680851066116
2440,4085.03,10.35336206896436
2441,4086.17,5.614629430718668
2442,4086.79,16.742746553551516
2443,4088.66,4.044249201280407
2444,4089.11,14.773413173652877
2445,4090.59,22.337648261756243
2446,4092.58,5.746382978722261
2447,4093.22,11.958066561015562
2448,4094.56,4.951008886565122
2449,4095.12,11.223896940416703
2450,4096.36,6.408234349920072
2451,4097.07,10.643861490037933
2452,4098.27,6.744251968497803
2453,4099.03,10.056802794201943
2454,4100.14,5.595843405150733
2455,4100.77,16.779705882347773
2456,4102.66,16.897940709372964
2457,4104.55,5.735541401268669
2458,4105.19,11.91917197452979
2459,4106.52,5.041757322173158
2460,4107.09,13.031469648560664
2461,4108.54,4.94051363348397
2462,4109.01,17.788168316827196
2463,4110.74,2.6083371824522548
2464,4111.01,13.500471148757907
2465,4112.52,4.948398576512456
2466,4113.02,16.399626168218262
2467,4114.7,3.469429590021431
2468,4115.05,16.919416785204138
2469,4116.5,7.001137980089594
2470,4117.1,11.003048128339001
2471,4118.21,5.787319884729734
2472,4118.81,16.85237762237337
2473,4120.54,5.535156794422261
2474,4121.11,11.233073394496111
2475,4122.28,7.08648370498089
2476,4123.02,15.172565445021222
2477,4124.58,5.426743916573983
2478,4125.14,10.843467048711648
2479,4126.27,7.4777371832577835
2480,4127.03,14.821346153850888
2481,4128.51,5.668389982108018
2482,4129.08,11.181103934236916
2483,4130.22,5.70971698113136
2484,4130.8,16.601060171915584
2485,4132.53,5.611810294967485
2486,4133.11,11.012979214783766
2487,4134.25,7.687555296856456
2488,4135.04,15.031502590677432
2489,4136.6,5.83560209423553
2490,4137.2,12.424253393668954
2491,4138.51,4.8029259896729775
2492,4139.01,16.325384615384962
2493,4140.72,17.002464589234783
2494,4142.51,5.5619101123609225
2495,4143.1,11.16764114029809
2496,4144.29,6.83898016997409
2497,4145.01,13.736575342463741
2498,4146.5,5.844518664046758
2499,4147.04,19.571795800140507
2500,4148.69,17.78465753425214
2501,4150.55,5.145152838423268
2502,4151.11,11.263907793635722
2503,4152.33,6.18591657519277
2504,4153.0,10.494528710722573
2505,4154.15,5.553219592738645
2506,4154.75,17.080198785202896
2507,4156.59,5.512663755453502
2508,4157.19,12.46281250000784
2509,4158.52,4.801009879249202
2510,4159.04,11.009264305175444
2511,4160.24,5.688119891007173
2512,4160.86,17.064359673029863
2513,4162.72,16.407801380774707
2514,4164.55,5.615470459515585
2515,4165.16,12.60559652928516
2516,4166.54,4.349515219842509
2517,4167.0,11.268084874859984
2518,4168.23,5.475406283860308
2519,4168.83,17.00565264882912
2520,4170.68,16.825715056659902
2521,4172.53,5.697024128687314
2522,4173.16,12.697659923456445
2523,4174.54,4.220000000002287
2524,4175.01,11.181207910206476
2525,4176.25,7.130288924558259
2526,4177.04,13.140000000000326
2527,4178.5,6.6348081264103875
2528,4179.04,18.42755189691856
2529,4180.61,5.6226896180732435
2530,4181.23,11.321104199074536
2531,4182.52,5.054382022467313
2532,4183.08,11.053422890921167
2533,4184.3,6.561648351648688
2534,4185.01,15.842231404959016
2535,4186.72,16.840448430492934
2536,4188.51,5.812629815744371
2537,4189.13,11.252894736844453
2538,4190.35,6.155807860262677
2539,4191.02,10.749694323136417
2540,4192.19,5.710645161291312
2541,4192.82,16.83584541063329
2542,4194.68,16.920000000000982
2543,4196.56,5.716114101176807
2544,4197.19,11.812845786968968
2545,4198.51,4.752230059680974
2546,4199.03,19.346435536293697
2547,4201.15,19.23833333334157
2548,4202.68,18.23611545399588
2549,4204.5,5.129235127478409
2550,4205.04,11.320375939850328
2551,4206.21,5.492478825521616
2552,4206.79,16.94097222222222
2553,4208.54,5.80591141396622
2554,4209.15,14.04180602006689
2555,4210.65,5.611951219520112
2556,4211.14,12.591895190233473
2557,4212.21,6.643752345219159
2558,4212.85,17.38233449477317
2559,4214.64,5.534134078205125
2560,4215.23,12.024264129832677
2561,4216.51,4.7040358744394615
2562,4217.01,11.096470588235983
2563,4218.18,5.644254711594768
2564,4218.77,17.09786773090045
2565,4220.56,5.6647158131631095
2566,4221.16,10.925419677599345
2567,4222.33,6.505242718449386
2568,4223.01,15.838552036199783
2569,4224.68,17.548594194651358
2570,4226.52,5.021525423726401
2571,4227.05,11.310166944908522
2572,4228.26,7.165348837204902
2573,4229.03,15.007762039659365
2574,4230.61,5.647672462145881
2575,4231.21,12.332235817572363
2576,4232.53,4.612265844089512
2577,4233.02,11.227855153201642
2578,4234.22,5.818434879820104
2579,4234.84,16.390044052859057
2580,4236.61,5.681874647095484
2581,4237.21,11.998356391809292
2582,4238.5,4.779064671296474
2583,4239.03,11.35068019748105
2584,4240.26,7.08492618917006
2585,4241.03,13.532025862075244
2586,4242.52,5.954684014867236
2587,4243.01,17.729032258058467
2588,4244.61,5.488647474202133
2589,4245.21,11.705549626469088
2590,4246.51,5.0651396648041285
2591,4247.05,11.001628959274637
2592,4248.21,5.665248618781489
2593,4248.82,16.887597366976838
2594,4250.65,17.280464112255366
2595,4252.55,5.645923566879959
2596,4253.18,12.081319554844084
2597,4254.53,4.579148936172173
2598,4255.04,11.599168490155181
2599,4256.3,6.335990491284002
2600,4257.01,15.547891373797993
2601,4258.74,17.490809628013775
2602,4260.64,17.98911949685309
2603,4262.67,16.240430054377143
2604,4264.6,5.491111111104135
2605,4265.23,11.531449200624278
2606,4266.55,5.59845425867605
2607,4267.18,11.395027513758114
2608,4268.52,4.555316455694014
2609,4269.05,11.214538503552314
2610,4270.27,7.179544950051084
2611,4271.04,15.64925110131788
2612,4272.73,4.52181568843205
2613,4273.22,12.625676625658695
2614,4274.51,5.132489190858554
2615,4275.01,11.592097902094004
2616,4276.2,5.797912694432989
2617,4276.88,10.925121602290172
2618,4278.22,5.670000000000615
2619,4278.89,11.170746268654254
2620,4280.21,5.529879879876785
2621,4280.86,11.50338092809728
2622,4282.19,5.870180180184513
2623,4282.88,11.38461988304003
2624,4284.25,6.437640232106215
2625,4285.03,10.749263456090063
2626,4286.36,5.678662873405618
2627,4287.06,11.983786641038261
2628,4288.52,5.042253922966301
2629,4289.14,11.151056639694495
2630,4290.51,5.104504504499862
2631,4291.11,12.12082861554583
2632,4292.5,5.196466165410745
2633,4293.11,11.98467741935951
2634,4294.51,5.815465004794162
2635,4295.22,10.404460668864521
2636,4296.51,17.793034877663715
2637,4298.53,5.313820033959654
2638,4299.09,11.476684118676477
2639,4300.27,7.266062992121521
2640,4301.04,15.58888888888722
2641,4302.74,16.321500275788015
2642,4304.5,5.120069284062206
2643,4305.03,14.394157043886587
2644,4306.52,5.500224948872806
2645,4307.01,18.699639389729843
2646,4308.65,17.3527932960928
2647,4310.5,5.760293159610119
2648,4311.13,9.96620096721698
2649,4312.23,6.305675675676768
2650,4312.86,17.169048991360782
2651,4314.64,5.577128087305446
2652,4315.22,12.226666666661913
2653,4316.53,4.768639726807058
2654,4317.03,10.7881196581207
2655,4318.16,5.570303882950164
2656,4318.75,17.037145260800173
2657,4320.56,5.888764607671986
2658,4321.19,12.163373493981602
2659,4322.51,4.6994852135836105
2660,4323.02,10.544999999992458
2661,4324.19,5.9810758776907305
2662,4324.82,17.76346024636366
2663,4326.71,16.364485881723542
2664,4328.53,4.958969359337604
2665,4329.06,11.026617033945525
2666,4330.17,6.541238670691203
2667,4330.82,17.775573302914857
2668,4332.68,17.042324959909237
2669,4334.57,5.770946018175053
2670,4335.21,11.520125786165133
2671,4336.51,4.598722608232861
2672,4337.02,15.811826985147045
2673,4338.5,6.870790464239388
2674,4339.16,12.317607864556226
2675,4340.5,4.9688609715219005
2676,4341.03,10.384997128086606
2677,4342.11,6.0976463899974345
2678,4342.75,17.206249316565426
2679,4344.62,5.458966613669566
2680,4345.23,11.600802603040863
2681,4346.5,5.201635969661482
2682,4347.07,11.198189749184452
2683,4348.29,6.6107733619806535
2684,4349.02,10.399329758709847
2685,4350.17,5.6780769230779065
2686,4350.8,16.394025157227865
2687,4352.65,17.97739726028068
2688,4354.6,5.555514592928895
2689,4355.24,11.027441860467027
2690,4356.5,5.535433403804523
2691,4357.12,12.461370449679785
2692,4358.5,4.894391785151697
2693,4359.05,11.105997952914883
2694,4360.33,5.948595041324861
2695,4361.01,11.356012269934235
2696,4362.32,6.0245436105539305
2697,4363.02,14.773011664896
2698,4364.67,17.89448275861754
2699,4366.53,5.62207606973156
2700,4367.16,11.907823343849875
2701,4368.5,5.224463208689549
2702,4369.02,16.162539682534916
2703,4370.5,6.25022975301201
2704,4371.15,11.82153846154352
2705,4372.51,4.5834824281169775
2706,4373.02,11.924795539032806
2707,4374.35,5.863798449613039
2708,4375.02,10.45187008904638
2709,4376.2,5.857391304350823
2710,4376.84,16.182683959762517
2711,4378.65,5.39727574750763
2712,4379.23,12.648718984423946
2713,4380.54,4.738855721395063
2714,4381.05,13.930939226519337
2715,4382.55,4.1035530951145365
2716,4383.03,10.724956654773955
2717,4384.27,6.935514626212544
2718,4385.03,15.238020893795902
2719,4386.6,6.269596541783235
2720,4387.25,11.773258785946087
2721,4388.56,5.831515151509848
2722,4389.24,11.12862903225962
2723,4390.54,4.923360488795857
2724,4391.11,21.853084660527596
2725,4392.72,17.896778644270785
2726,4394.51,5.743668261557775
2727,4395.15,12.353431320156869
2728,4396.52,4.468253968253968
2729,4397.02,11.377773019265705
2730,4398.28,6.64111642743842
2731,4399.02,13.871144674079341
2732,4400.57,5.11273095077586
2733,4401.03,13.270163934429501
2734,4402.21,6.221797752807618
2735,4402.87,11.41376996805504
2736,4404.14,5.6399999999948704
2737,4404.78,17.17423728813624
2738,4406.7,16.303125000003206
2739,4408.55,5.6226896180732435
2740,4409.17,12.425891141943351
2741,4410.55,4.673622704507513
2742,4411.05,11.001628959274637
2743,4412.21,5.412888283380082
2744,4412.8,16.28804065499959
2745,4414.52,6.132744516892815
2746,4415.14,10.99717339667134
2747,4416.25,7.174900057110222
2748,4417.0,10.75792207792473
2749,4418.18,5.423719008263508
2750,4418.8,16.642110874195517
2751,4420.65,17.449989462592526
2752,4422.61,5.59845425867605
2753,4423.24,11.422630744855288
2754,4424.52,5.092098475962543
2755,4425.04,11.414986072425782
2756,4426.26,6.795039123626499
2757,4427.03,12.841841155236882
2758,4428.5,4.754892966362429
2759,4429.05,9.954432989685639
2760,4430.19,5.020966542754517
2761,4430.75,17.673522180652387
2762,4432.71,5.661515151517575
2763,4433.22,14.596004056789457
2764,4434.53,5.4836209553168205
2765,4435.16,12.219565217394598
2766,4436.51,5.214932058376667
2767,4437.12,12.108027314111043
2768,4438.53,4.793827160495413
2769,4439.08,11.253954685890518
2770,4440.37,5.712305295954952
2771,4441.02,11.498195718653808
2772,4442.35,5.7050701402811805
2773,4443.02,11.156065573768032
2774,4444.34,6.258461538463752
2775,4445.06,10.9843887775548
2776,4446.35,5.689980019980638
2777,4447.02,11.480065032511618
2778,4448.37,5.787661492240836
2779,4449.05,12.284124570870201
2780,4450.52,4.687764127759864
2781,4451.08,11.886830466831075
2782,4452.5,4.761332312405862
2783,4453.05,12.840939563228185
2784,4454.54,4.263171098845961
2785,4455.04,12.960960566230387
2786,4456.55,4.561847070506147
2787,4457.09,11.849289239880319
2788,4458.5,5.266898920511217
2789,4459.13,11.650547550432874
2790,4460.55,5.371394775746716
2791,4461.19,11.668948655261273
2792,4462.59,3.891128791646255
2793,4463.05,10.709945115256616
2794,4464.21,5.792968845446034
2795,4464.78,13.133022323982926
2796,4466.15,5.806164112708191
2797,4466.84,13.67737451737332
2798,4468.5,4.398613138684018
2799,4469.03,10.393563218394377
2800,4470.3,6.120513814830962
2801,4471.04,12.163349374402346
2802,4472.52,11.684867256635226
2803,4474.05,5.798297779709108
2804,4474.82,11.460765902211742
2805,4476.35,6.063157894731328
2806,4477.15,10.975854643338383
2807,4478.57,4.263171098845961
2808,4479.07,12.214313725492682
2809,4480.5,4.441568627454709
2810,4481.02,11.477507629704357
2811,4482.35,5.7741137633322674
2812,4483.02,13.17141993957673
2813,4484.56,4.845283018863518
2814,4485.16,8.233578500710738
2815,4486.18,6.475866261392286
2816,4486.82,17.368615897726393
2817,4488.68,17.131487290428254
2818,4490.56,5.503048128339292
2819,4491.17,14.13116883117049
2820,4492.72,5.826122448974293
2821,4493.24,15.751883408071302
2822,4494.53,5.015352197471403
2823,4495.03,15.49915492958056
2824,4496.67,18.566428571427487
2825,4498.54,4.401957612941592
2826,4499.01,14.290687285221274
2827,4500.5,16.739635036500477
2828,4501.09,33.726995515685694
2829,4502.53,10.975021398018335
2830,4503.02,31.289999999995416
2831,4504.51,15.682186234817815
2832,4505.01,43.95283018867924
2833,4506.51,12.917218543046358
2834,4507.01,57.225660847871914
2835,4508.5,19.22503597123916
2836,4509.02,40.02166666665486
2837,4510.5,12.100909090914271
2838,4511.01,31.402044560933874
2839,4512.53,10.430373599016624
2840,4513.06,31.85649746191363
2841,4514.65,6.937202007535442
2842,4515.0,30.12727728984554
2843,4516.52,10.542594458433221
2844,4517.05,31.402500000002878
2845,4518.64,7.558841309825848
2846,4519.02,29.09194029849888
2847,4520.5,10.270000000008622
2848,4521.02,31.873157894730358
2849,4522.63,7.3599244332471985
2850,4523.0,29.92907151819755
2851,4524.51,9.981668773704174
2852,4525.01,30.291546391748142
2853,4526.5,9.028930957687606
2854,4527.01,26.237074235811658
2855,4528.52,10.203893805308454
2856,4529.1,28.235005440682542
2857,4530.73,2.3342201834900127
2858,4531.0,14.822835519673355
2859,4532.73,2.302112393380541
2860,4533.0,15.323266129031948
2861,4534.79,16.560389610388068
2862,4536.74,2.277932573132092
2863,4537.01,9.11108216432618
2864,4538.08,6.1507920792119055
2865,4538.81,11.908473282443044
2866,4540.27,5.781305903398927
2867,4541.02,11.584850948507789
2868,4542.51,16.834146341462024
2869,4544.71,11.621933701659474
2870,4546.18,5.583617021273358
2871,4546.87,11.851613351875873
2872,4548.36,5.8670873786441025
2873,4549.13,11.572194580188256
2874,4550.64,14.319347154831005
2875,4552.52,3.560872913989059
2876,4553.0,11.65869565217528
2877,4554.55,4.563955994612711
2878,4555.14,8.77221813161269
2879,4556.25,7.446666666664235
2880,4557.03,12.58279863481818
2881,4558.35,6.332503457808902
2882,4559.15,10.933962264150944
2883,4560.65,11.43816254416961
2884,4562.15,5.5116230838596145
2885,4562.86,11.260554803794555
2886,4564.31,6.1596406906168415
2887,4565.08,12.226900269541217
2888,4566.66,13.770721255832886
2889,4568.53,3.818823529413399
2890,4569.04,10.95696444059004
2891,4570.5,11.543089005233682
2892,4572.03,5.740340760158922
2893,4572.79,11.63174311926578
2894,4574.33,5.918339920946684
2895,4575.11,11.933866317168519
2896,4576.69,2.4372796934927696
2897,4577.02,11.401694915248886
2898,4578.57,5.104180967238049
2899,4579.15,9.236513761468363
2900,4580.57,15.834449339207387
2901,4582.28,6.149461077845074
2902,4583.16,11.545122699386749
2903,4584.87,1.010749808725942
2904,4585.02,5.775680902495935
2905,4585.84,6.5921020092753
2906,4586.81,6.531137026234598
2907,4587.82,8.381258955987049
2908,4589.19,7.655585344060177
2909,4590.59,1.9713099771508618
2910,4591.0,6.9638887551177895
2911,4592.51,5.932700194257038
2912,4593.91,3.812020486040644
2913,4594.86,7.986405529956558
2914,4596.51,13.97971865949236
2915,4598.45,13.75932157394977
2916,4600.71,1.8115923376230667
2917,4601.04,7.966383656909873
2918,4602.53,7.103973820697496
2919,4604.04,8.372213740458172
2920,4606.0,4.809048185603951
2921,4607.21,1.1310672853826889
2922,4607.5,5.821395348836356
2923,4608.99,1.9460803454110076
2924,4609.5,5.0047098913240955
2925,4610.83,6.924654788418434
2926,4612.66,1.6189400921669943
2927,4613.09,5.36217231897451
2928,4614.52,2.9656740660503615
2929,4615.32,4.061766289715937
2930,4616.42,2.3558176943711784
2931,4617.06,4.614632587856894
2932,4618.32,2.696291857598571
2933,4619.06,5.884395205230386
2934,4620.64,7.236366940883449
2935,4622.51,6.2260601387796815
2936,4624.11,7.92503833515841
2937,4626.23,7.070798319330368
2938,4628.18,3.8217403708985827
2939,4629.22,1.1121277747705713
2940,4629.52,5.794215246635697
2941,4631.09,2.141691176469495
2942,4631.66,4.49625746876711
2943,4632.87,2.748061186879775
2944,4633.6,4.234212408366263
2945,4634.75,6.000746349377637
2946,4636.37,3.091825821238289
2947,4637.17,4.267835862843878
2948,4638.29,2.7420932409670806
2949,4639.01,5.768319232939357
2950,4640.52,7.922328620009399
2951,4642.67,7.22289081200543
2952,4644.59,5.358355795147576
2953,4646.04,7.360148043709733
2954,4648.06,3.72940322294851
2955,4649.08,3.3527536231871293
2956,4649.94,5.767237687368904
2957,4651.09,3.8788663967576067
2958,4651.73,6.885000000001193
2959,4652.99,7.7155697098364
2960,4654.69,1.2832062391713646
2961,4655.02,6.042085074058888
2962,4656.59,1.9948336252195737
2963,4657.14,4.761682600381359
2964,4658.46,3.057919380391306
2965,4659.3,3.869187279150084
2966,4660.36,2.529587036071631
2967,4661.06,5.396725476356912
2968,4662.54,3.0167741285512797
2969,4663.29,1.9128855166240133
2970,4663.73,5.039738684091329
2971,4664.85,7.341626794255869
2972,4666.45,2.653988005997461
2973,4667.08,6.447218045114436
2974,4668.64,7.696585365853801
2975,4670.6,7.33492374727425
2976,4672.57,7.714182194618935
2977,4674.72,2.8887256371826457
2978,4675.06,10.76499999999549
2979,4676.45,3.9611757269308634
2980,4677.14,6.0940060774857026
2981,4678.41,2.656361170316967
2982,4679.09,5.298520900320071
2983,4680.53,1.7829284981183715
2984,4681.03,5.2627886563157436
2985,4682.52,8.318460138331098
2986,4684.75,7.099781061848668
2987,4686.65,7.095041924901782
2988,4688.55,7.185822454307306
2989,4690.54,5.571657809019088
2990,4692.1,6.819184372857602
2991,4694.01,7.510686875765545
2992,4696.08,6.916530187370144
2993,4698.0,5.0823108665752255
2994,4699.42,0.43723651744761083
2995,4699.54,5.7569474797318465
2996,4701.12,1.6616316639734803
2997,4701.57,5.210560696790273
2998,4702.97,2.950537634409273
2999,4703.77,4.838461124077846
3000,4705.08,1.7671503040826184
3001,4705.57,4.4364650677806425
3002,4706.8,6.356071240568521
3003,4708.55,2.3521407288551615
3004,4709.08,3.844096037027683
3005,4709.8,8.10056641403967
3006,4710.96,8.883209530483986
3007,4712.38,3.476308831305284
3008,4713.08,7.061032504779948
3009,4714.62,8.147337883961184
3010,4716.56,5.876685945630623
3011,4718.07,7.888184291673819
3012,4720.19,6.794384337972071
3013,4722.09,6.8496551724132715
3014,4724.0,7.554545454546763
3015,4726.1,6.888944099379143
3016,4728.02,7.140103519667953
3017,4730.01,11.421993833503976
3018,4733.21,2.9154003407144677
3019,4734.03,3.9331043956056964
3020,4735.13,1.3153244762387537
3021,4735.5,5.570282776351043
3022,4737.06,1.986031331590062
3023,4737.61,4.966278586278978
3024,4738.99,5.436157046282637
3025,4740.5,2.5389103182264905
3026,4741.05,7.775820019561377
3027,4742.37,5.776179775282941
3028,4743.09,11.840073529411764
3029,4744.59,11.971943462895307
3030,4746.16,6.268590767096113
3031,4747.17,2.544220234766893
3032,4747.66,5.825798816567022
3033,4748.9,2.474609456364758
3034,4749.5,4.99973926380354
3035,4750.79,7.324391067742819
3036,4752.71,1.1848648648637874
3037,4753.03,5.245449551366264
3038,4754.43,2.472522885389422
3039,4755.09,4.702432432430681
3040,4756.36,2.7821531791907512
3041,4757.11,5.152179718514386
3042,4758.5,7.32839830658044
3043,4760.51,7.759077757685892
3044,4762.6,7.252693935119091
3045,4764.59,7.032728563820611
3046,4766.51,7.381493848856719
3047,4768.54,1.6098544866621496
3048,4769.01,9.780088495576369
3049,4770.56,10.607464788731063
3050,4772.59,4.984175824175199
3051,4773.75,8.433583730304141
3052,4776.0,4.429591201090558
3053,4777.13,5.944220830071337
3054,4778.64,1.644555071560421
3055,4779.04,5.726000419903875
3056,4780.42,2.941674409208501
3057,4781.15,5.560834166834677
3058,4782.54,7.919748549322024
3059,4784.57,5.596666666667806
3060,4786.0,8.096335221724566
3061,4788.06,3.733007975690606
3062,4789.03,2.3428350116203207
3063,4789.63,4.941227596837628
3064,4790.9,6.792701475597588
3065,4792.67,1.7534516657573673
3066,4793.14,5.05191135733784
3067,4794.48,2.402114537446163
3068,4795.12,4.292313432836235
3069,4796.25,8.760111690247236
3070,4798.56,7.613501938340472
3071,4800.58,7.359449035812808
3072,4802.54,5.827819562465019
3073,4804.11,7.3792361484669176
3074,4806.11,7.157518959914405
3075,4808.04,3.4465470523620443
3076,4808.96,6.615635673625268
3077,4810.68,1.8531665685671648
3078,4811.15,5.393961605585068
3079,4812.53,2.365564082887906
3080,4813.14,4.550080971660056
3081,4814.35,2.71010849909422
3082,4815.08,5.703486238533748
3083,4816.6,7.298129257962038
3084,4818.54,7.4800000000017866
3085,4820.52,6.062433628317351
3086,4822.13,9.021075771748883
3087,4824.5,2.3829090040621868
3088,4825.02,7.98265935571863
3089,4826.32,6.106012558874209
3090,4827.01,10.777439024390244
3091,4828.26,6.545981452859351
3092,4829.01,10.63396226414933
3093,4830.21,5.568131416840631
3094,4830.85,11.197834101382172
3095,4832.14,5.7842236024831974
3096,4832.8,11.718663594465308
3097,4834.15,5.8137623762419155
3098,4834.84,11.850950048972203
3099,4836.26,6.257528089885597
3100,4837.04,11.793033707867211
3101,4838.51,5.252763337893867
3102,4839.18,10.68784636488083
3103,4840.54,4.8664920273369345
3104,4841.05,15.346651982381514
3105,4842.52,4.263680078502563
3106,4843.03,10.73803894297925
3107,4844.38,5.325409990573755
3108,4845.04,11.711523455645318
3109,4846.51,4.83219941348913
3110,4847.09,12.064692572549525
3111,4848.53,5.412760441669474
3112,4849.19,11.248511875913685
3113,4850.55,5.721599416622837
3114,4851.24,11.69992277992338
3115,4852.66,11.628679245287131
3116,4854.1,5.567872044504813
3117,4854.8,11.319697685400932
3118,4856.2,5.887795572307159
3119,4856.93,11.315014164303008
3120,4858.33,5.637418738053874
3121,4859.02,12.315454545450713
3122,4860.54,5.035604395606972
3123,4861.18,10.866057781917235
3124,4862.54,4.730583941603424
3125,4863.11,17.3066091572653
3126,4864.69,14.15062330623787
3127,4866.51,5.596376021795361
3128,4867.12,11.068772406301257
3129,4868.33,6.607009966777747
3130,4869.04,10.910621220453487
3131,4870.22,5.716114101185059
3132,4870.85,13.649956474426727
3133,4872.34,8.183962936562377
3134,4873.04,17.18059961314931
3135,4874.65,17.0821563342328
3136,4876.53,5.797835269276251
3137,4877.18,12.016920583465746
3138,4878.5,4.8257142857139605
3139,4879.04,10.905274725277414
3140,4880.22,5.9060646900236495
3141,4880.87,16.13121019108443
3142,4882.67,17.640000000003056
3143,4884.56,5.007733039161272
3144,4885.1,11.334052573928071
3145,4886.33,6.440841990156882
3146,4887.03,15.316363636366287
3147,4888.71,17.182971299940977
3148,4890.53,5.547773501927498
3149,4891.13,11.05809879379317
3150,4892.28,6.986482836247382
3151,4893.02,15.32186874304239
3152,4894.66,17.33549107143198
3153,4896.51,5.386629834253468
3154,4897.09,13.246762909495404
3155,4898.51,4.3871367974529765
3156,4899.0,10.84684871655101
3157,4900.18,5.663383947938265
3158,4900.8,16.758918918920244
3159,4902.64,4.8909434997233765
3160,4903.17,14.018028169016937
3161,4904.6,22.115593220334105
3162,4906.58,5.544196567863675
3163,4907.21,12.37183315038554
3164,4908.55,4.914587869357894
3165,4909.11,10.978219895294078
3166,4910.35,6.20414096916367
3167,4911.02,10.520581717444072
3168,4912.15,5.654101433301977
3169,4912.76,16.643815434429992
3170,4914.59,5.943867403309511
3171,4915.23,11.435421558168285
3172,4916.5,6.011939362260806
3173,4917.18,12.197186512117048
3174,4918.55,4.3974960127572125
3175,4919.04,10.736224545953524
3176,4920.2,5.958559556789752
3177,4920.84,17.08861878453174
3178,4922.68,17.543217158173327
3179,4924.62,17.025592705171242
3180,4926.6,17.047406483784663
3181,4928.61,5.286332162568061
3182,4929.23,11.166714727091192
3183,4930.51,6.211811023620433
3184,4931.21,12.038140703516346
3185,4932.62,15.963050847461439
3186,4934.6,4.791968503936685
3187,4935.14,9.092857142855403
3188,4936.09,7.598817345595923
3189,4936.79,13.652042006997618
3190,4938.19,5.388138901501934
3191,4938.88,13.631863568956076
3192,4940.5,4.638206144699254
3193,4941.05,10.92820851688268
3194,4942.36,101.96228250701793
3195,4955.08,1.2700000000004366
3196,4956.35,2.895743670884344
3197,4957.08,4.616893203884635
3198,4958.26,8.79499528746583
3199,4959.35,9.855615327924745
3200,4960.86,7.532334485510261
3201,4962.37,10.093988970590177
3202,4964.64,7.934978220283705
3203,4966.57,5.711200230814607
3204,4968.04,3.520528105621561
3205,4968.92,7.534225173938424
3206,4970.73,1.2456136820941632
3207,4971.04,6.0058316792386615
3208,4972.55,2.194999071839338
3209,4973.13,4.346220122288786
3210,4974.28,2.981317027283782
3211,4975.06,5.468347631479271
3212,4976.5,7.8857312988460215
3213,4978.58,5.526850984066786
3214,4980.03,7.962578796563152
3215,4982.09,4.113230944253717
3216,4983.16,1.91269542286683
3217,4983.66,5.615138427463187
3218,4985.15,1.6988436632774924
3219,4985.6,4.529633740287881
3220,4986.8,6.870396621373212
3221,4988.63,1.6781659388639503
3222,4989.08,4.970442477875011
3223,4990.4,3.0650111358589753
3224,4991.21,5.204833702882895
3225,4992.59,7.397395968189521
3226,4994.55,7.351527599486658
3227,4996.51,5.9279410694803545
3228,4998.1,4.974062556496893
3229,4999.44,6.5452266038876505
3230,5001.1,2.0023917284405166
3231,5001.61,5.441212477928624
3232,5002.99,2.4043815475108787
3233,5003.63,4.508800436205151
3234,5004.84,6.772975871314208
3235,5006.68,1.657081545063708
3236,5007.13,5.096337522442055
3237,5008.51,2.1618181818179103
3238,5009.09,4.6876387377592454
3239,5010.35,2.8259659296820985
3240,5011.11,5.55807426283476
3241,5012.6,7.417004608292465
3242,5014.57,7.312968980799556
3243,5016.51,5.641358365543899
3244,5018.01,8.114316024565074
3245,5020.15,3.9553680132823676
3246,5021.2,1.6629016120085953
3247,5021.64,5.186155988857525
3248,5023.01,2.1359340659329753
3249,5023.58,4.54455814808024
3250,5024.79,6.664328441390387
3251,5026.55,2.8551646706586826
3252,5027.3,3.9133434190602134
3253,5028.32,2.9710112359575507
3254,5029.1,5.585070634771283
3255,5030.56,6.2441247728619995
3256,5032.11,8.10070539419192
3257,5034.08,4.103629222309362
3258,5035.12,1.662675064840754
3259,5035.56,6.271965178736254
3260,5037.22,5.471723758930344
3261,5038.68,1.3305752708234766
3262,5039.03,5.404757709253013
3263,5040.47,2.5869941348958605
3264,5041.16,4.500459940654745
3265,5042.35,2.9394684385372463
3266,5043.13,5.097553056411711
3267,5044.5,7.498803932278259
3268,5046.51,8.064603404563833
3269,5048.68,6.878888289259448
3270,5050.54,5.617035040432881
3271,5052.06,12.884693877546944
3272,5053.21,8.845744391569953
3273,5054.0,9.367011222679835
3274,5054.95,11.029760765549732
3275,5056.53,7.530540540544035
3276,5058.02,5.138791382028196
3277,5059.06,2.719963898913446
3278,5059.65,5.125360072929538
3279,5060.81,7.763213175883252
3280,5062.7,1.582545281219648
3281,5063.11,5.245714285716531
3282,5064.47,2.4429385803590593
3283,5065.12,4.624664213433241
3284,5066.35,2.6430769230745192
3285,5067.07,5.882823779195332
3286,5068.68,7.433726708073602
3287,5070.71,7.45125609095912
3288,5072.72,5.013949489520556
3289,5074.08,7.2788394971754915
3290,5076.03,7.923978828252924
3291,5078.15,3.9924326292812586
3292,5079.22,1.6134862385297895
3293,5079.65,7.793902393766591
3294,5081.71,3.9208864265926606
3295,5082.75,6.8445933734938365
3296,5084.54,2.8426709604083302
3297,5085.28,3.954798206277889
3298,5086.32,3.003298468434677
3299,5087.11,5.546539101498466
3300,5088.58,7.431602189094233
3301,5090.52,5.686046511627907
3302,5092.02,4.712740851380799
3303,5093.26,6.260094786729569
3304,5094.84,2.761136079900425
3305,5095.51,5.0374683544294925
3306,5096.75,7.0390112271016125
3307,5098.53,1.7726607538812265
3308,5099.0,4.999868900219043
3309,5100.34,2.7634261838423586
3310,5101.07,5.810660011092486
3311,5102.61,7.339718076287979
3312,5104.56,7.369677598665237
3313,5106.51,6.026410918478209
3314,5108.11,7.427063711912317
3315,5110.08,4.468252208231813
3316,5111.25,1.102932162212532
3317,5111.54,5.075072273324295
3318,5112.87,7.475947467167118
3319,5114.83,1.1419083255385782
3320,5115.13,8.241062202742047
3321,5117.3,4.238950843727482
3322,5118.43,2.7661290322580645
3323,5119.18,4.141192041215536
3324,5120.31,2.872967129548119
3325,5121.1,5.606901408450572
3326,5122.64,7.079413020275212
3327,5124.57,5.4437568857904655
3328,5126.02,8.84589803012562
3329,5128.29,6.673917050692233
3330,5130.01,7.699596541786473
3331,5132.09,6.9761913892288705
3332,5134.02,4.284660194173316
3333,5135.21,1.2075039886542278
3334,5135.54,5.454171692088595
3335,5137.03,2.3421276595756666
3336,5137.67,4.471391426562011
3337,5138.9,2.9197668256498424
3338,5139.7,3.950892388451971
3339,5140.79,2.9278316193146763
3340,5141.6,5.648628333909587
3341,5143.17,5.751530877012206
3342,5144.77,1.5093999654128671
3343,5145.19,4.6097615708290745
3344,5146.46,2.304344436570208
3345,5147.09,2.5020793140418
3346,5147.77,12.972138574277013
3347,5148.95,12.612068394930935
3348,5150.31,11.155231099964169
3349,5152.06,4.235864661651365
3350,5152.95,7.585037406485514
3351,5154.55,2.4149999999998375
3352,5155.09,6.342037786773833
3353,5156.54,8.352521008404103
3354,5158.59,5.943965723394904
3355,5160.08,7.529661082976522
3356,5162.0,4.490781010719192
3357,5163.16,1.6562357414459878
3358,5163.59,5.238326996196458
3359,5164.95,6.794602573809398
3360,5166.72,1.6897633024033107
3361,5167.16,5.208612804879452
3362,5168.51,2.0405453163585108
3363,5169.04,5.864277620395624
3364,5170.57,7.886785312853612
3365,5172.64,7.1595167286223305
3366,5174.53,5.735692771084337
3367,5176.03,7.636049636126972
3368,5178.04,4.142960862166483
3369,5179.12,1.6801352874878523
3370,5179.56,5.131448170731427
3371,5180.89,6.699095022624435
3372,5182.64,1.4000668151443534
3373,5183.01,5.734208127610249
3374,5184.5,2.3041307165327387
3375,5185.11,4.365010130782023
3376,5186.27,2.8089655172405505
3377,5187.01,5.791262645183661
3378,5188.53,6.081824729893703
3379,5190.05,8.019356966199654
3380,5192.01,4.153151067651022
3381,5193.05,1.783867996930302
3382,5193.51,5.1338844847117695
3383,5194.85,6.749290898938175
3384,5196.63,1.5552513966474926
3385,5197.04,5.146400449945144
3386,5198.39,3.0145166134783663
3387,5199.18,5.474880256456241
3388,5200.61,7.2787093708433055
3389,5202.5,6.167948229921464
3390,5204.1,7.934817954151274
3391,5206.14,3.796652806651969
3392,5207.13,6.096006097560696
3393,5208.71,1.7156288618708042
3394,5209.14,5.200780156028295
3395,5210.44,2.8632823973020645
3396,5211.16,6.665809716600761
3397,5212.55,4.765352112675736
3398,5213.09,12.41071207430404
3399,5214.51,4.839164544060805
3400,5215.07,12.192669342701928
3401,5216.5,4.888181818179322
3402,5217.07,11.026192893406655
3403,5218.35,5.7421355236126965
3404,5219.01,13.040387596897315
3405,5220.5,5.974285714288271
3406,5221.01,14.63740157479723
3407,5222.36,5.768359133133612
3408,5223.02,11.113789632605757
3409,5224.32,5.8133668847533695
3410,5225.0,10.456271909047551
3411,5226.29,6.191214616572627
3412,5227.0,13.275138178094004
3413,5228.53,4.070612870277996
3414,5229.0,10.124451313754525
3415,5230.16,5.664629728290807
3416,5230.79,17.61319745897528
3417,5232.76,2.3144220090822665
3418,5233.03,9.686284704695533
3419,5234.16,5.685173745177941
3420,5234.85,11.424204545453366
3421,5236.26,6.1577272727290415
3422,5237.02,9.964119106694529
3423,5238.2,5.637397188966966
3424,5238.84,11.520927357029917
3425,5240.16,7.076358087484772
3426,5240.98,13.426125760652532
3427,5242.54,29.405276174770858
3428,5244.74,1.9410344827602501
3429,5245.0,13.883706691979413
3430,5246.71,16.949758064512395
3431,5248.69,16.065110663984836
3432,5250.57,11.896256077802231
3433,5251.04,33.760884955753056
3434,5252.5,34.07430379745199
3435,5253.03,51.59286681717225
3436,5254.51,15.389331103682727
3437,5255.1,38.15885191346054
3438,5256.57,11.461419249610703
3439,5257.02,37.3743451463615
3440,5258.57,10.77390134529233
3441,5259.03,33.975465116294835
3442,5260.52,10.382328398380302
3443,5261.01,32.36419354839006
3444,5262.6,10.54810939356948
3445,5263.16,27.128866587954096
3446,5264.61,7.272852233686897
3447,5265.01,26.639664804469273
3448,5266.51,10.241578947362925
3449,5267.12,23.666547497443403
3450,5268.57,6.721343012704706
3451,5269.03,21.606986301373606
3452,5270.5,6.786672254819782
3453,5271.0,20.387847165156835
3454,5272.53,9.334868421050206
3455,5273.23,17.346945606703436
3456,5274.51,6.369999999997162
3457,5275.0,20.754030327219404
3458,5276.6,5.568205128200064
3459,5277.04,18.63610510046963
3460,5278.52,8.568631090479446
3461,5279.2,16.86738317756917
3462,5280.53,6.038720379150191
3463,5281.0,17.755140186911273
3464,5282.4,3.8658064516148802
3465,5283.04,11.820373831775422
3466,5284.58,21.240885766647786
3467,5286.67,16.645922330098895
3468,5288.68,4.445515853040748
3469,5289.2,10.324167127841607
3470,5290.31,7.358329297816423
3471,5291.04,10.45922827846404
3472,5292.19,5.95467899891686
3473,5292.84,11.953727175077924
3474,5294.16,5.670597322352855
3475,5294.81,15.684906043674486
3476,5296.63,5.898093076048905
3477,5297.25,12.46838487972683
3478,5298.55,5.37159558454684
3479,5299.18,11.810819672128305
3480,5300.54,5.28552376085562
3481,5301.15,11.925084055018772
3482,5302.53,4.437368421058892
3483,5303.02,10.815384615382976
3484,5304.22,5.239579464770673
3485,5304.79,17.77082616179351
3486,5306.64,17.230909090903783
3487,5308.53,5.428709677420693
3488,5309.12,12.960477247505828
3489,5310.51,4.713106646058415
3490,5311.05,11.435135135136735
3491,5312.35,5.797551020408792
3492,5313.02,14.093438914024043
3493,5314.67,5.180491384809435
3494,5315.16,14.76150141643567
3495,5316.43,6.379939527209054
3496,5317.12,11.620618253192138
3497,5318.51,5.113540621860946
3498,5319.11,11.952310030397951
3499,5320.5,4.557267080749168
3500,5321.02,11.869072812984328
3501,5322.36,6.653493975909201
3502,5323.14,11.263785814933662
3503,5324.54,5.424020813624051
3504,5325.21,11.08557692307991
3505,5326.56,5.5537221947590325
3506,5327.22,11.32999999999938
3507,5328.55,4.656334106724303
3508,5329.03,12.571676300579794
3509,5330.33,6.595109343934229
3510,5331.11,10.794370664029307
3511,5332.39,5.409001490308046
3512,5333.03,11.762855685879588
3513,5334.39,6.0270244633053505
3514,5335.1,9.782398414270329
3515,5336.26,6.582037325038881
3516,5337.01,12.599878934624698
3517,5338.26,6.154634146339649
3518,5339.0,12.148367250354946
3519,5340.5,5.87945736434303
3520,5341.05,12.481538461541067
3521,5342.27,7.135241716456117
3522,5343.05,15.296363636362296
3523,5344.71,16.629868995636865
3524,5346.52,5.901120507391579
3525,5347.03,18.69512898331074
3526,5348.54,5.608347245412416
3527,5349.14,10.569926431945998
3528,5350.33,6.642275042443096
3529,5351.03,10.606254071659908
3530,5352.19,5.699742489271373
3531,5352.82,15.270420168069487
3532,5354.54,5.332899408283665
3533,5355.08,11.617941176473925
3534,5356.22,5.6411743772213185
3535,5356.79,18.214044548648612
3536,5358.65,17.438455284559822
3537,5360.56,4.83194805194573
3538,5361.09,10.479145063431789
3539,5362.22,5.7989464390832435
3540,5362.81,18.48656212303213
3541,5364.65,3.499370125978443
3542,5365.0,17.47076877587658
3543,5366.77,17.094120781523216
3544,5368.5,5.1990641871669325
3545,5369.02,16.932551928774735
3546,5370.73,19.056895368788783
3547,5372.72,11.665591182363801
3548,5374.09,5.692285012287448
3549,5374.77,11.42854368931376
3550,5376.15,5.8203646833016425
3551,5376.86,13.402136752141185
3552,5378.51,5.637058823526901
3553,5379.0,13.278427887904845
3554,5380.18,5.687691453937014
3555,5380.79,12.933513513514175
3556,5382.21,5.04857142857054
3557,5382.83,12.292894333844428
3558,5384.25,5.322154915591786
3559,5384.88,11.438192771087031
3560,5386.27,6.140512697652133
3561,5387.02,10.977001934235377
3562,5388.35,6.066295585410878
3563,5389.09,11.350069930070513
3564,5390.51,4.342665330663181
3565,5391.02,11.34289308175875
3566,5392.3,6.551371610841377
3567,5393.03,10.35661733615092
3568,5394.19,5.816931637524757
3569,5394.84,11.406582278478743
3570,5396.12,5.663547880693635
3571,5396.76,16.546714068055476
3572,5398.68,16.961152647969644
3573,5400.61,5.551875000000962
3574,5401.24,11.29564945227495
3575,5402.52,5.433512352304404
3576,5403.12,11.365389507158122
3577,5404.39,5.752040816323311
3578,5405.04,11.219228441758343
3579,5406.35,5.7033010697898785
3580,5407.01,11.14132511556019
3581,5408.29,6.551518324605397
3582,5409.03,13.139937920331091
3583,5410.53,5.587087378648658
3584,5411.02,13.201522491347825
3585,5412.18,5.331362229099305
3586,5412.79,16.06679536679387
3587,5414.74,2.4261420541702114
3588,5415.02,14.327088733795211
3589,5416.71,16.56158617183591
3590,5418.63,17.65107030430027
3591,5420.62,16.8860708782787
3592,5422.56,5.704432348363837
3593,5423.21,11.17341772152055
3594,5424.51,5.6499999999968376
3595,5425.16,11.725853658541602
3596,5426.52,5.72393861892457
3597,5427.18,11.230744416872835
3598,5428.51,4.995176704829505
3599,5429.1,12.606400211750948
3600,5430.51,4.782939969216565
3601,5431.06,10.33446721311128
3602,5432.25,8.38481296758519
3603,5433.06,10.230524629555722
3604,5434.52,5.013128781324768
3605,5435.19,11.369940119761713
3606,5436.53,4.399574468091313
3607,5437.02,11.152935153575642
3608,5438.19,6.110085470088596
3609,5438.83,11.724624277454062
3610,5440.15,5.573196300105627
3611,5440.79,15.11090163934237
3612,5442.53,4.8147381095772905
3613,5443.01,14.854121037463628
3614,5444.55,4.818645598193283
3615,5445.17,11.08424682395701
3616,5446.59,16.45832252085033
3617,5448.66,11.752425409049552
3618,5450.09,5.492784222734633
3619,5450.78,15.449697542531904
3620,5452.69,16.578966963824612
3621,5454.56,5.614629430718668
3622,5455.18,12.371070663810578
3623,5456.55,4.138524590162261
3624,5457.0,11.27655574043295
3625,5458.21,5.633477088947795
3626,5458.83,17.079999999999323
3627,5460.66,17.41719008264564
3628,5462.54,5.695292259086642
3629,5463.18,11.984999999997115
3630,5464.54,4.758723404253033
3631,5465.07,11.313191489363662
3632,5466.33,6.223408732244568
3633,5467.03,10.816224436289621
3634,5468.25,6.766884735206329
3635,5469.02,10.628785677210805
3636,5470.23,5.665055611735576
3637,5470.89,15.621820020219948
3638,5472.71,5.081403508767308
3639,5473.23,6.128255528259245
3640,5473.83,29.47725502130102
3641,5476.74,2.484757558473278
3642,5477.0,16.284122265839976
3643,5478.73,2.269012833172474
3644,5479.0,12.885776031433881
3645,5480.54,5.187293497361304
3646,5481.07,11.256206896552424
3647,5482.24,5.621267765777396
3648,5482.83,16.395767918091167
3649,5484.55,5.4465619546198285
3650,5485.11,11.058098793801916
3651,5486.26,7.185993031356767
3652,5487.0,15.32056994818793
3653,5488.59,5.5799999999993
3654,5489.17,13.003835616435227
3655,5490.53,4.793073840870063
3656,5491.03,15.703613445378835
3657,5492.7,17.1234960272435
3658,5494.5,5.487620365247618
3659,5495.09,11.367362637358601
3660,5496.32,6.469230769237493
3661,5497.02,14.277551020405015
3662,5498.67,2.4047773279362517
3663,5499.01,7.665118110233959
3664,5500.12,4.100034129693278
3665,5500.79,6.391556420234316
3666,5501.88,6.507591240876318
3667,5503.05,7.7035940195505
3668,5504.5,9.930581428982922
3669,5506.36,13.755409686263983
3670,5508.83,1.4752191235046344
3671,5509.11,4.5509871244666
3672,5509.97,5.7112178387646235
3673,5511.05,8.297690757267663
3674,5512.61,4.544661525281567
3675,5513.47,6.598641975308457
3676,5514.76,8.961803713528758
3677,5516.56,4.268036437244172
3678,5517.45,6.352468827930863
3679,5518.79,8.46337611056354
3680,5520.59,6.639970326408811
3681,5522.0,3.7211764705870203
3682,5522.78,8.488117408908977
3683,5524.55,8.258481518480483
3684,5526.29,3.911489361703511
3685,5527.01,6.769565217388568
3686,5527.91,8.215715571560258
3687,5528.97,10.196373626371736
3688,5530.54,7.992968177976704
3689,5532.07,3.791583011586195
3690,5532.85,8.140381679387385
3691,5534.54,3.090775770456417
3692,5535.16,4.515426466424138
3693,5536.02,4.462106339465635
3694,5536.75,12.974513064132259
3695,5538.62,2.719270072993172
3696,5539.04,4.372350355091164
3697,5539.76,7.302199488492314
3698,5541.02,7.130838375103973
3699,5542.36,8.74412698412807
3700,5544.12,4.425364570284522
3701,5545.05,7.6264424514184785
3702,5546.66,1.6375017743106675
3703,5547.02,7.36226099092551
3704,5548.66,6.5635475234279905
3705,5550.17,4.752058432936499
3706,5551.27,6.993258426963907
3707,5552.87,2.5995835884887764
3708,5553.51,5.209980353633429
3709,5554.83,3.0482608695641358
3710,5555.65,4.3117208814289185
3711,5556.84,2.6606657608695654
3712,5557.59,4.320539845758485
3713,5558.8,3.072531645569235
3714,5559.67,4.096463231616063
3715,5560.84,2.4098404785629093
3716,5561.53,4.974868616758573
3717,5562.96,2.095872036374322
3718,5563.57,4.6448339362057
3719,5564.91,2.260505450943424
3720,5565.56,4.405282076882257
3721,5566.82,5.2560576923086035
3722,5568.29,8.736519721576874
3723,5570.53,6.717593123210892
3724,5572.09,4.245126475546092
3725,5573.11,5.4588524590169865
3726,5574.45,2.4347764449317584
3727,5575.02,3.4122615622923855
3728,5575.81,7.2597490214102045
3729,5577.44,6.574432508173914
3730,5578.9,7.065754923415903
3731,5580.55,2.3883558511740923
3732,5581.13,5.7017875210788045
3733,5582.5,7.121577801958962
3734,5584.17,5.376436953273947
3735,5585.45,10.224884829232007
3736,5588.02,8.064844384302212
3737,5590.3,6.815188473779798
3738,5592.24,6.832680412370614
3739,5594.15,6.871005673027595
3740,5596.07,4.657560041768055
3741,5597.36,0.5787020237292112
3742,5597.52,5.476959389099302
3743,5599.04,5.524452541448294
3744,5600.52,2.434634146341035
3745,5601.14,5.2069257950518555
3746,5602.46,2.3767503379017945
3747,5603.07,4.882742031282811
3748,5604.3,8.65579185520335
3749,5606.63,7.484239007891908
3750,5608.59,7.763383543587804
3751,5610.62,7.432070484581366
3752,5612.66,6.63815461346824
3753,5614.56,6.8541516709488
3754,5616.57,7.153170731707067
3755,5618.65,6.566660212972176
3756,5620.57,6.630748919829647
3757,5622.52,23.934612476370134
3758,5624.81,1.65976346911807
3759,5625.09,7.4530741410458115
3760,5626.44,3.5904732164334727
3761,5627.22,5.11736842105295
3762,5628.39,2.5113974799527754
3763,5629.04,5.918493647913428
3764,5630.63,6.92587599134783
3765,5632.5,7.558643690939411
3766,5634.5,8.019285714286784
3767,5636.68,6.451990234045879
3768,5638.51,5.883653444676804
3769,5640.14,3.9973729909457982
3770,5641.2,5.728803827753027
3771,5642.68,1.7796547394826885
3772,5643.11,6.259277108435949
3773,5644.55,7.249887902847662
3774,5646.16,8.035911725369392
3775,5648.01,8.391623560504414
3776,5650.2,6.52034593861337
3777,5652.04,8.752084028009337
3778,5654.54,7.10741081165327
3779,5656.67,1.128354336546762
3780,5657.02,4.200059488397411
3781,5658.32,2.717234803337777
3782,5659.16,3.789193109700341
3783,5660.32,2.4329262490095838
3784,5661.04,3.2810831721471265
3785,5662.0,7.540273013650419
3786,5664.08,8.49435897436081
3787,5666.1,4.690511701703214
3788,5667.28,5.149249530958235
3789,5668.63,1.8728786453425335
3790,5669.12,6.810698297303313
3791,5670.88,2.02492290334615
3792,5671.41,6.051199207135019
3793,5673.15,1.304274363548291
3794,5673.53,5.013906399237515
3795,5675.01,2.04576951237184
3796,5675.65,7.874431554525864
3797,5678.13,6.254002354325491
3798,5680.08,8.125212527964912
3799,5682.59,7.777736699727592
3800,5684.98,6.580733046448876
3801,5687.02,4.365216856350929
3802,5688.34,3.1787981510016614
3803,5689.3,3.8502076970069594
3804,5690.47,1.9021907136169782
3805,5691.04,4.9545791350171005
3806,5692.53,1.7372284644209344
3807,5693.05,4.439092627598265
3808,5694.37,2.6232711231753374
3809,5695.11,4.475908141964918
3810,5696.35,2.5766271273829067
3811,5697.07,4.932905692439565
3812,5698.46,2.1120967741948293
3813,5699.06,5.569735739604097
3814,5700.69,1.279463281132289
3815,5701.08,1.6564109096365551
3816,5701.59,4.247083912841065
3817,5702.87,2.4102209605662384
3818,5703.6,4.891308781006741
3819,5705.09,1.5755569080935152
3820,5705.57,5.572677285956649
3821,5707.26,10.624688644687208
3822,5710.49,7.415914482356642
3823,5712.81,4.617783279929511
3824,5714.26,2.3661353647810186
3825,5715.0,6.922979297930148
3826,5717.13,13.116963613553088
3827,5718.39,10.90063666300367
3828,5720.07,4.351856990394332
3829,5720.94,7.997952755909463
3830,5722.56,9.962332896459003
3831,5724.58,6.042903225807682
3832,5726.01,4.2947466007424
3833,5727.06,1.8630207243032033
3834,5727.51,5.857244582040811
3835,5728.94,6.983437500000149
3836,5730.65,1.9577668433013677
3837,5731.16,4.888335573047497
3838,5732.42,2.8005160571738537
3839,5733.16,5.126617429839712
3840,5734.52,1.8323858589447504
3841,5735.02,5.4701039501022475
3842,5736.54,1.9420335636736485
3843,5737.1,5.891229946521896
3844,5738.78,6.69803278688771
3845,5740.56,6.858534725010182
3846,5742.27,7.495292712063715
3847,5744.15,7.189734513274753
3848,5746.03,7.8005137519462915
3849,5748.2,6.7453692614780625
3850,5750.13,6.824336432799
3851,5752.06,7.239830169829152
3852,5754.13,3.64200338123325
3853,5755.16,1.303890928161521
3854,5755.52,4.988550224367948
3855,5756.91,6.213767373810721
3856,5758.57,2.0836447137020078
3857,5759.1,6.126006964595498
3858,5760.67,1.837634763475529
3859,5761.16,5.199610816737932
3860,5762.55,1.7594458438287153
3861,5763.05,5.166210864782665
3862,5764.51,2.2345833333329397
3863,5765.13,4.2527331810998605
3864,5766.3,2.89629221471725
3865,5767.09,4.369189189190267
3866,5768.27,2.7592984917547687
3867,5769.03,5.829814782458861
3868,5770.64,1.3787734361314632
3869,5771.02,5.874808056462022
3870,5772.66,1.2529927760590938
3871,5773.01,5.731675126903167
3872,5774.63,6.957341772152798
3873,5776.6,6.997574047955131
3874,5778.52,5.7083317886906215
3875,5780.03,4.516481481480915
3876,5781.19,1.710207852195975
3877,5781.63,5.165965463106311
3878,5782.94,6.870952009364026
3879,5784.69,1.7670657321463796
3880,5785.15,5.221442362296386
3881,5786.51,2.0800445103864442
3882,5787.06,4.68394094264371
3883,5788.28,6.795166250240246
3884,5790.03,5.016723228617774
3885,5791.16,1.8256224899601556
3886,5791.58,6.222225201073653
3887,5793.01,6.64481389578119
3888,5794.63,1.5546119486314973
3889,5795.04,5.06008311295695
3890,5796.36,2.7905521472402506
3891,5797.08,5.682953426734114
3892,5798.56,1.6583865608255175
3893,5799.0,5.848856304986838
3894,5800.56,7.318129043537367
3895,5802.58,1.871579812592345
3896,5803.12,4.82459476913092
3897,5804.53,1.871184327693443
3898,5805.11,5.742181340342237
