,BIT_DEPTH,RATE_OF_PENETRATION,HOOK_LOAD,DIFFERENTIAL_PRESSURE,WEIGHT_ON_BIT,DRILL_BIT_ID,DRILL_BIT_NAME,CPR,CPF,CPH,NEXT_DEPTH,NEXT_RATE,PREV_ID,DEPTH_INTERVAL,TIME_INTERVAL,cost
0,730.65,944.4,104.0,46,1.57,1,Apollo,1000,4.0,2500,731.09,341.3,,0.44000000000005457,0.12224090427784842,1307.3622606946212
1,731.09,341.3,89.1,356,15.78,1,Apollo,1000,4.0,2500,732.72,515.5,1.0,1.6299999999999955,0.004775857017286831,18.459642543217058
2,732.72,515.5,66.6,741,36.31,1,Apollo,1000,4.0,2500,733.13,479.6,1.0,0.40999999999996817,0.0007953443258971254,3.6283608147426865
3,733.13,479.6,60.0,873,36.18,1,Apollo,1000,4.0,2500,734.1,409.4,1.0,0.9700000000000273,0.0020225187656380886,8.93629691409533
4,734.1,409.4,55.8,780,52.58,1,Apollo,1000,4.0,2500,736.58,420.8,1.0,2.480000000000018,0.006057645334636097,25.064113336590317
5,736.58,420.8,59.4,927,40.55,1,Apollo,1000,4.0,2500,737.57,397.8,1.0,0.9900000000000091,0.0023526615969581967,9.841653992395528
6,737.57,397.8,60.1,822,41.42,1,Apollo,1000,4.0,2500,739.06,276.8,1.0,1.4899999999998954,0.003745600804424071,15.32400201105976
7,739.06,276.8,61.2,722,42.17,1,Apollo,1000,4.0,2500,740.68,449.8,1.0,1.6200000000000045,0.00585260115606938,21.11150289017347
8,740.68,449.8,66.0,815,42.79,1,Apollo,1000,4.0,2500,743.39,411.9,1.0,2.7100000000000364,0.006024899955535875,25.902249888839833
9,743.39,411.9,67.8,901,43.22,1,Apollo,1000,4.0,2500,744.54,485.0,1.0,1.1499999999999773,0.0027919397912114043,11.57984947802842
10,744.54,485.0,66.6,892,30.29,1,Apollo,1000,4.0,2500,746.25,424.8,1.0,1.7100000000000364,0.0035257731958763636,15.654432989691054
11,746.25,424.8,58.0,799,50.18,1,Apollo,1000,4.0,2500,748.55,465.1,1.0,2.2999999999999545,0.005414312617702341,22.73578154425567
12,748.55,465.1,73.5,896,33.87,1,Apollo,1000,4.0,2500,749.14,529.9,1.0,0.5900000000000318,0.0012685443990540352,5.531360997635215
13,749.14,529.9,51.9,808,45.83,1,Apollo,1000,4.0,2500,749.68,559.4,1.0,0.5399999999999636,0.0010190602000376744,4.70765050009404
14,749.68,559.4,53.4,771,34.0,1,Apollo,1000,4.0,2500,752.51,437.9,1.0,2.830000000000041,0.0050589917769038985,23.967479442259908
15,752.51,437.9,56.4,866,38.43,1,Apollo,1000,4.0,2500,753.18,464.3,1.0,0.6699999999999591,0.0015300296871430898,6.505074217857561
16,753.18,464.3,55.9,923,50.13,1,Apollo,1000,4.0,2500,754.18,479.1,1.0,1.0,0.002153779883695886,9.384449709239716
17,754.18,479.1,64.8,798,33.57,1,Apollo,1000,4.0,2500,756.72,449.6,1.0,2.5400000000000773,0.005301607180129571,23.414017950324236
18,756.72,449.6,64.3,796,30.13,1,Apollo,1000,4.0,2500,757.07,433.8,1.0,0.35000000000002274,0.0007784697508897302,3.3461743772244166
19,757.07,433.8,67.0,953,42.71,1,Apollo,1000,4.0,2500,758.51,505.0,1.0,1.4399999999999409,0.00331950207468866,14.058755186721413
20,758.51,505.0,56.6,812,47.58,1,Apollo,1000,4.0,2500,762.6,491.3,1.0,4.090000000000032,0.008099009900990162,36.60752475247553
21,762.6,491.3,47.6,861,49.83,1,Apollo,1000,4.0,2500,763.12,398.7,1.0,0.5199999999999818,0.0010584164461632033,4.726041115407936
22,763.12,398.7,60.1,812,37.19,1,Apollo,1000,4.0,2500,764.61,372.9,1.0,1.490000000000009,0.0037371457236017283,15.302864309004358
23,764.61,372.9,58.8,913,46.98,1,Apollo,1000,4.0,2500,767.02,406.8,1.0,2.409999999999968,0.0064628586752479705,25.7971466881198
24,767.02,406.8,56.7,906,40.08,1,Apollo,1000,4.0,2500,771.19,469.0,1.0,4.170000000000073,0.010250737463127022,42.30684365781785
25,771.19,469.0,65.5,926,44.94,1,Apollo,1000,4.0,2500,772.58,401.8,1.0,1.3899999999999864,0.0029637526652451737,12.96938166311288
26,772.58,401.8,56.2,951,45.38,1,Apollo,1000,4.0,2500,773.12,440.4,1.0,0.5399999999999636,0.0013439522150322637,5.519880537580514
27,773.12,440.4,55.2,804,55.13,1,Apollo,1000,4.0,2500,776.66,430.2,1.0,3.5399999999999636,0.008038147138964495,34.255367847411094
28,776.66,430.2,55.0,910,42.11,1,Apollo,1000,4.0,2500,779.1,338.7,1.0,2.4400000000000546,0.005671780567178183,23.939451417945676
29,779.1,338.7,59.0,866,37.58,1,Apollo,1000,4.0,2500,780.1,475.6,1.0,1.0,0.002952465308532625,11.381163271331562
30,780.1,475.6,55.6,906,44.39,1,Apollo,1000,4.0,2500,783.22,552.1,1.0,3.1200000000000045,0.006560134566862919,28.880336417157316
31,783.22,552.1,47.8,941,49.78,1,Apollo,1000,4.0,2500,784.34,506.1,1.0,1.1200000000000045,0.0020286180039847937,9.551545009962002
32,784.34,506.1,55.7,890,51.24,1,Apollo,1000,4.0,2500,786.56,578.4,1.0,2.2199999999999136,0.004386484884410025,19.846212211024714
33,786.56,578.4,56.1,814,47.83,1,Apollo,1000,4.0,2500,787.06,628.1,1.0,0.5,0.0008644536652835409,4.161134163208852
34,787.06,628.1,53.0,920,46.99,1,Apollo,1000,4.0,2500,792.68,608.4,1.0,5.6200000000000045,0.00894761980576342,44.84904951440856
35,792.68,608.4,56.2,863,41.82,1,Apollo,1000,4.0,2500,799.22,582.8,1.0,6.540000000000077,0.010749506903353185,53.03376725838327
36,799.22,582.8,65.8,953,35.01,1,Apollo,1000,4.0,2500,800.59,601.4,1.0,1.3700000000000045,0.0023507206588881343,11.356801647220355
37,800.59,601.4,52.5,914,48.78,1,Apollo,1000,4.0,2500,804.18,508.4,1.0,3.589999999999918,0.005969404722314463,29.283511805785828
38,804.18,508.4,70.9,916,50.38,1,Apollo,1000,4.0,2500,805.03,586.4,1.0,0.8500000000000227,0.0016719118804091714,7.5797797010230195
39,805.03,586.4,58.5,860,44.14,1,Apollo,1000,4.0,2500,806.55,592.0,1.0,1.5199999999999818,0.002592087312414703,12.560218281036684
40,806.55,592.0,55.6,904,44.72,1,Apollo,1000,4.0,2500,807.05,541.1,1.0,0.5,0.0008445945945945946,4.111486486486486
41,807.05,541.1,49.4,873,49.98,1,Apollo,1000,4.0,2500,810.03,619.3,1.0,2.980000000000018,0.005507299944557416,25.688249861393615
42,810.03,619.3,49.5,955,46.76,1,Apollo,1000,4.0,2500,812.3,650.2,1.0,2.269999999999982,0.003665428709833654,18.243571774584062
43,812.3,650.2,62.6,819,42.47,1,Apollo,1000,4.0,2500,814.5,682.5,1.0,2.2000000000000455,0.003383574284835505,17.25893571208894
44,814.5,682.5,61.5,688,34.96,1,Apollo,1000,4.0,2500,815.44,686.5,1.0,0.9400000000000546,0.0013772893772894571,7.203223443223861
45,815.44,686.5,56.6,735,36.98,1,Apollo,1000,4.0,2500,816.76,643.9,1.0,1.3199999999999363,0.0019227967953385817,10.086991988346199
46,816.76,643.9,60.4,595,35.2,1,Apollo,1000,4.0,2500,818.98,683.3,1.0,2.2200000000000273,0.003447740332349786,17.499350830874576
47,818.98,683.3,61.3,725,31.13,1,Apollo,1000,4.0,2500,822.65,77.4,1.0,3.669999999999959,0.005370993707010039,28.107484267524935
48,822.65,77.4,61.5,414,12.56,1,Apollo,1000,4.0,2500,824.01,344.0,1.0,1.3600000000000136,0.017571059431524722,49.36764857881186
49,824.01,344.0,84.1,310,11.94,1,Apollo,1000,4.0,2500,828.1,468.3,1.0,4.090000000000032,0.011889534883721022,46.083837209302686
50,828.1,468.3,88.8,165,8.95,1,Apollo,1000,4.0,2500,829.04,312.1,1.0,0.9399999999999409,0.0020072603032243023,8.77815075806052
51,829.04,312.1,82.4,549,19.94,1,Apollo,1000,4.0,2500,830.73,629.3,1.0,1.6900000000000546,0.005414931111823308,20.297327779558486
52,830.73,629.3,63.6,836,43.84,1,Apollo,1000,4.0,2500,831.84,507.7,1.0,1.1100000000000136,0.0017638646114730872,8.849661528682773
53,831.84,507.7,66.1,720,35.27,1,Apollo,1000,4.0,2500,833.65,572.2,1.0,1.8099999999999454,0.003565097498522642,16.152743746306385
54,833.65,572.2,68.1,918,46.91,1,Apollo,1000,4.0,2500,835.02,603.1,1.0,1.3700000000000045,0.0023942677385529612,11.465669346382422
55,835.02,603.1,63.5,811,47.98,1,Apollo,1000,4.0,2500,836.56,577.5,1.0,1.5399999999999636,0.0025534737191178305,12.543684297794432
56,836.56,577.5,69.8,808,33.08,1,Apollo,1000,4.0,2500,838.96,474.3,1.0,2.400000000000091,0.004155844155844314,19.989610389611148
57,838.96,474.3,70.5,893,49.16,1,Apollo,1000,4.0,2500,839.2,548.3,1.0,0.2400000000000091,0.0005060088551549843,2.225022137887497
58,839.2,548.3,55.7,769,48.73,1,Apollo,1000,4.0,2500,840.63,620.1,1.0,1.42999999999995,0.002608061280320901,12.240153200802052
59,840.63,620.1,59.0,898,48.57,1,Apollo,1000,4.0,2500,841.12,656.4,1.0,0.4900000000000091,0.000790195129817786,3.9354878245445013
60,841.12,656.4,60.9,846,45.24,1,Apollo,1000,4.0,2500,842.53,620.8,1.0,1.4099999999999682,0.002148080438756807,11.01020109689189
61,842.53,620.8,63.9,743,45.06,1,Apollo,1000,4.0,2500,843.38,618.7,1.0,0.8500000000000227,0.0013692010309278716,6.82300257731977
62,843.38,618.7,57.9,721,48.81,1,Apollo,1000,4.0,2500,844.57,572.6,1.0,1.1900000000000546,0.0019233877485050177,9.568469371262761
63,844.57,572.6,75.1,908,57.25,1,Apollo,1000,4.0,2500,846.53,504.8,1.0,1.9599999999999227,0.0034229828850854396,16.39745721271329
64,846.53,504.8,66.0,831,46.59,1,Apollo,1000,4.0,2500,847.03,545.9,1.0,0.5,0.0009904912836767037,4.47622820919176
65,847.03,545.9,61.4,782,47.36,1,Apollo,1000,4.0,2500,848.0,515.1,1.0,0.9700000000000273,0.0017768822128595482,8.32220553214898
66,848.0,515.1,51.9,860,47.74,1,Apollo,1000,4.0,2500,848.75,584.3,1.0,0.75,0.00145602795573675,6.640069889341875
67,848.75,584.3,64.6,880,45.45,1,Apollo,1000,4.0,2500,850.27,658.3,1.0,1.5199999999999818,0.002601403388670173,12.583508471675358
68,850.27,658.3,59.6,793,45.28,1,Apollo,1000,4.0,2500,851.19,808.9,1.0,0.9200000000000728,0.0013975391159047135,7.173847789762075
69,851.19,808.9,59.0,845,45.06,1,Apollo,1000,4.0,2500,852.62,780.8,1.0,1.42999999999995,0.0017678328594386821,10.139582148596505
70,852.62,780.8,60.2,746,46.17,1,Apollo,1000,4.0,2500,854.52,613.3,1.0,1.8999999999999773,0.0024334016393442333,13.683504098360492
71,854.52,613.3,68.4,792,40.9,1,Apollo,1000,4.0,2500,855.03,564.3,1.0,0.5099999999999909,0.0008315669329854735,4.118917332463647
72,855.03,564.3,57.2,863,49.64,1,Apollo,1000,4.0,2500,856.51,638.5,1.0,1.4800000000000182,0.0026227184121921285,12.476796030480394
73,856.51,638.5,58.6,806,51.64,1,Apollo,1000,4.0,2500,857.03,614.6,1.0,0.5199999999999818,0.000814408770555962,4.116021926389832
74,857.03,614.6,60.3,859,44.14,1,Apollo,1000,4.0,2500,858.59,642.9,1.0,1.5600000000000591,0.002538236251220402,12.585590628051241
75,858.59,642.9,58.0,967,50.67,1,Apollo,1000,4.0,2500,859.18,640.2,1.0,0.5899999999999181,0.0009177165966712057,4.654291491677687
76,859.18,640.2,58.7,876,52.62,1,Apollo,1000,4.0,2500,859.8,646.1,1.0,0.6200000000000045,0.0009684473601999446,4.90111840049988
77,859.8,646.1,55.3,799,48.15,1,Apollo,1000,4.0,2500,861.03,661.4,1.0,1.2300000000000182,0.0019037300727441854,9.679325181860536
78,861.03,661.4,58.5,775,51.36,1,Apollo,1000,4.0,2500,862.58,576.6,1.0,1.5500000000000682,0.0023435137586937833,12.058784396734731
79,862.58,576.6,55.3,935,53.41,1,Apollo,1000,4.0,2500,863.72,631.4,1.0,1.1399999999999864,0.001977107180020788,9.502767950051915
80,863.72,631.4,62.1,841,42.0,1,Apollo,1000,4.0,2500,864.82,555.5,1.0,1.1000000000000227,0.0017421602787456808,8.755400696864292
81,864.82,555.5,56.0,834,36.67,1,Apollo,1000,4.0,2500,866.73,626.7,1.0,1.9099999999999682,0.0034383438343833814,16.235859585958327
82,866.73,626.7,58.9,881,48.61,1,Apollo,1000,4.0,2500,868.78,704.7,1.0,2.0499999999999545,0.00327110260092541,16.377756502313343
83,868.78,704.7,60.0,847,45.97,1,Apollo,1000,4.0,2500,870.23,633.2,1.0,1.4500000000000455,0.002057613168724344,10.944032921811043
84,870.23,633.2,54.9,962,48.96,1,Apollo,1000,4.0,2500,872.98,593.4,1.0,2.75,0.004343019583070119,21.8575489576753
85,872.98,593.4,53.2,943,47.32,1,Apollo,1000,4.0,2500,875.04,524.2,1.0,2.0599999999999454,0.0034715200539264333,16.918800134815864
86,875.04,524.2,75.6,680,34.97,1,Apollo,1000,4.0,2500,876.24,669.4,1.0,1.2000000000000455,0.0022892025944296936,10.523006486074415
87,876.24,669.4,51.9,897,51.37,1,Apollo,1000,4.0,2500,878.69,573.1,1.0,2.4500000000000455,0.0036599940244996195,18.94998506124923
88,878.69,573.1,56.9,920,42.81,1,Apollo,1000,4.0,2500,880.58,590.8,1.0,1.8899999999999864,0.0032978537777002027,15.804634444250452
89,880.58,590.8,54.5,948,50.8,1,Apollo,1000,4.0,2500,881.1,598.7,1.0,0.5199999999999818,0.0008801624915368685,4.280406228842098
90,881.1,598.7,53.4,973,49.5,1,Apollo,1000,4.0,2500,883.2,577.4,1.0,2.1000000000000227,0.0035075997995657636,17.168999498914502
91,883.2,577.4,55.4,999,48.79,1,Apollo,1000,4.0,2500,884.57,667.6,1.0,1.3700000000000045,0.0023727052303429245,11.41176307585733
92,884.57,667.6,56.9,903,46.67,1,Apollo,1000,4.0,2500,886.17,562.5,1.0,1.599999999999909,0.0023966446974234704,12.391611743558311
93,886.17,562.5,61.6,769,42.98,1,Apollo,1000,4.0,2500,889.04,663.5,1.0,2.8700000000000045,0.00510222222222223,24.235555555555592
94,889.04,663.5,54.6,945,50.01,1,Apollo,1000,4.0,2500,890.97,457.1,1.0,1.9300000000000637,0.002908816880180955,14.99204220045264
95,890.97,457.1,74.1,588,21.7,1,Apollo,1000,4.0,2500,894.59,588.9,1.0,3.6200000000000045,0.007919492452417423,34.27873113104357
96,894.59,588.9,56.7,860,49.85,1,Apollo,1000,4.0,2500,896.53,674.5,1.0,1.9399999999999409,0.0032942774664627967,15.995693666156756
97,896.53,674.5,52.9,964,46.67,1,Apollo,1000,4.0,2500,904.55,685.0,1.0,8.019999999999982,0.011890289103039261,61.805722757598076
98,904.55,685.0,56.7,886,47.7,1,Apollo,1000,4.0,2500,906.27,602.8,1.0,1.7200000000000273,0.002510948905109529,13.157372262773931
99,906.27,602.8,62.0,932,48.29,1,Apollo,1000,4.0,2500,907.37,698.4,1.0,1.1000000000000227,0.001824817518248213,8.962043795620623
100,907.37,698.4,51.8,845,49.16,1,Apollo,1000,4.0,2500,908.14,545.9,1.0,0.7699999999999818,0.0011025200458189889,5.836300114547399
101,908.14,545.9,60.9,1009,47.65,1,Apollo,1000,4.0,2500,908.8,636.9,1.0,0.6599999999999682,0.0012090126396775383,5.662531599193718
102,908.8,636.9,51.4,907,48.54,1,Apollo,1000,4.0,2500,920.23,1022.9,1.0,11.430000000000064,0.01794630240226105,90.58575600565288
103,920.23,1022.9,44.5,885,59.46,1,Apollo,1000,4.0,2500,924.63,477.8,1.0,4.399999999999977,0.004301495747384864,28.35373936846207
104,924.63,477.8,82.3,544,22.34,1,Apollo,1000,4.0,2500,926.99,642.1,1.0,2.3600000000000136,0.004939305148597768,21.788262871494474
105,926.99,642.1,76.3,575,29.19,1,Apollo,1000,4.0,2500,928.6,660.2,1.0,1.6100000000000136,0.0025073976016197065,12.70849400404932
106,928.6,660.2,78.3,606,31.88,1,Apollo,1000,4.0,2500,929.17,589.9,1.0,0.5699999999999363,0.0008633747349287129,4.438436837321527
107,929.17,589.9,77.0,541,29.56,1,Apollo,1000,4.0,2500,930.24,571.2,1.0,1.07000000000005,0.0018138667570775557,8.814666892694088
108,930.24,571.2,72.0,667,33.97,1,Apollo,1000,4.0,2500,930.75,715.2,1.0,0.5099999999999909,0.0008928571428571269,4.27214285714278
109,930.75,715.2,74.5,713,32.26,1,Apollo,1000,4.0,2500,932.93,592.8,1.0,2.17999999999995,0.003048098434004404,16.34024608501081
110,932.93,592.8,63.0,850,45.13,1,Apollo,1000,4.0,2500,933.19,554.2,1.0,0.2600000000001046,0.00043859649122824664,2.136491228071035
111,933.19,554.2,63.3,791,41.95,1,Apollo,1000,4.0,2500,933.71,641.9,1.0,0.5199999999999818,0.0009382894261998948,4.4257235654996645
112,933.71,641.9,60.6,801,44.25,1,Apollo,1000,4.0,2500,935.05,577.7,1.0,1.3399999999999181,0.0020875525782830945,10.57888144570741
113,935.05,577.7,61.1,770,43.89,1,Apollo,1000,4.0,2500,936.66,584.3,1.0,1.6100000000000136,0.0027869136229877333,13.407284057469388
114,936.66,584.3,62.2,786,42.75,1,Apollo,1000,4.0,2500,937.19,559.9,1.0,0.5300000000000864,0.0009070682868391005,4.387670717098096
115,937.19,559.9,65.8,679,40.76,1,Apollo,1000,4.0,2500,938.23,707.8,1.0,1.0399999999999636,0.0018574745490265471,8.803686372566222
116,938.23,707.8,61.8,727,43.34,1,Apollo,1000,4.0,2500,938.76,564.5,1.0,0.5299999999999727,0.0007487990957897326,3.9919977394742223
117,938.76,564.5,60.2,797,43.34,1,Apollo,1000,4.0,2500,940.09,646.2,1.0,1.330000000000041,0.002356067316209107,11.210168290522931
118,940.09,646.2,60.2,821,44.01,1,Apollo,1000,4.0,2500,941.21,596.4,1.0,1.1200000000000045,0.0017332095326524366,8.81302383163111
119,941.21,596.4,61.9,744,46.21,1,Apollo,1000,4.0,2500,942.53,576.8,1.0,1.3199999999999363,0.002213279678068304,10.813199195170505
120,942.53,576.8,57.0,846,46.55,1,Apollo,1000,4.0,2500,943.34,582.4,1.0,0.8100000000000591,0.001404299583911337,6.750748959778579
121,943.34,582.4,56.3,902,47.97,1,Apollo,1000,4.0,2500,944.64,549.6,1.0,1.2999999999999545,0.0022321428571427794,10.780357142856767
122,944.64,549.6,58.0,883,45.0,1,Apollo,1000,4.0,2500,945.18,657.7,1.0,0.5399999999999636,0.0009825327510916367,4.616331877728946
123,945.18,657.7,63.4,913,43.57,1,Apollo,1000,4.0,2500,946.75,575.7,1.0,1.57000000000005,0.0023871065835488064,12.247766458872217
124,946.75,575.7,76.2,638,27.25,1,Apollo,1000,4.0,2500,947.01,627.6,1.0,0.2599999999999909,0.00045162410977938315,2.1690602744484213
125,947.01,627.6,72.6,633,31.31,1,Apollo,1000,4.0,2500,948.06,639.7,1.0,1.0499999999999545,0.0016730401529635988,8.382600382408814
126,948.06,639.7,65.4,841,40.55,1,Apollo,1000,4.0,2500,950.27,637.6,1.0,2.2100000000000364,0.0034547444114429206,17.476861028607445
127,950.27,637.6,66.1,755,37.52,1,Apollo,1000,4.0,2500,951.06,562.3,1.0,0.7899999999999636,0.0012390213299873958,6.2575533249683435
128,951.06,562.3,70.2,716,34.04,1,Apollo,1000,4.0,2500,952.64,636.7,1.0,1.580000000000041,0.0028098879601636865,13.34471990040938
129,952.64,636.7,65.1,757,40.35,1,Apollo,1000,4.0,2500,953.17,567.9,1.0,0.5299999999999727,0.0008324171509344632,4.201042877336048
130,953.17,567.9,60.0,863,47.36,1,Apollo,1000,4.0,2500,954.76,559.8,1.0,1.5900000000000318,0.0027997886951928717,13.359471737982307
131,954.76,559.8,55.7,918,47.59,1,Apollo,1000,4.0,2500,956.09,646.4,1.0,1.330000000000041,0.00237584851732769,11.25962129331939
132,956.09,646.4,58.3,923,44.6,1,Apollo,1000,4.0,2500,957.49,582.8,1.0,1.3999999999999773,0.002165841584158381,11.014603960395862
133,957.49,582.8,59.7,925,50.36,1,Apollo,1000,4.0,2500,960.12,569.3,1.0,2.6299999999999955,0.00451269732326698,21.80174330816743
134,960.12,569.3,52.8,913,46.43,1,Apollo,1000,4.0,2500,962.53,675.5,1.0,2.409999999999968,0.004233268926752096,20.223172316880113
135,962.53,675.5,67.0,690,37.66,1,Apollo,1000,4.0,2500,963.22,756.2,1.0,0.6900000000000546,0.001021465581051154,5.3136639526281035
136,963.22,756.2,66.4,740,36.98,1,Apollo,1000,4.0,2500,964.17,632.9,1.0,0.9499999999999318,0.0012562814070350857,6.940703517587441
137,964.17,632.9,65.5,790,39.26,1,Apollo,1000,4.0,2500,964.79,671.9,1.0,0.6200000000000045,0.0009796176331174035,4.929044082793527
138,964.79,671.9,66.1,732,37.67,1,Apollo,1000,4.0,2500,966.68,628.7,1.0,1.8899999999999864,0.002812918589075735,14.592296472689283
139,966.68,628.7,62.4,729,40.31,1,Apollo,1000,4.0,2500,972.51,670.3,1.0,5.830000000000041,0.009273103228885065,46.50275807221283
140,972.51,670.3,57.6,829,45.16,1,Apollo,1000,4.0,2500,973.16,681.8,1.0,0.6499999999999773,0.0009697150529613267,5.024287632403226
141,973.16,681.8,57.8,822,46.83,1,Apollo,1000,4.0,2500,974.62,774.9,1.0,1.4600000000000364,0.0021413904370783756,11.193476092696084
142,974.62,774.9,57.5,954,48.07,1,Apollo,1000,4.0,2500,978.59,697.5,1.0,3.9700000000000273,0.005123241708607598,28.6881042715191
143,978.59,697.5,59.1,806,43.09,1,Apollo,1000,4.0,2500,980.61,572.3,1.0,2.019999999999982,0.0028960573476702247,15.32014336917549
144,980.61,572.3,58.6,997,48.95,1,Apollo,1000,4.0,2500,981.23,686.6,1.0,0.6200000000000045,0.001083347894460955,5.188369736152406
145,981.23,686.6,58.7,882,43.22,1,Apollo,1000,4.0,2500,982.14,659.7,1.0,0.9099999999999682,0.0013253713952810489,6.953428488202495
146,982.14,659.7,68.6,795,36.88,1,Apollo,1000,4.0,2500,982.77,671.1,1.0,0.6299999999999955,0.0009549795361527897,4.9074488403819565
147,982.77,671.1,67.5,754,36.97,1,Apollo,1000,4.0,2500,984.0,746.2,1.0,1.2300000000000182,0.0018328118015199198,9.502029503799871
148,984.0,746.2,66.8,746,35.56,1,Apollo,1000,4.0,2500,986.5,760.8,1.0,2.5,0.003350308228357009,18.37577057089252
149,986.5,760.8,67.3,801,36.07,1,Apollo,1000,4.0,2500,987.23,656.7,1.0,0.7300000000000182,0.0009595162986330418,5.318790746582677
150,987.23,656.7,56.4,814,43.77,1,Apollo,1000,4.0,2500,988.5,760.9,1.0,1.2699999999999818,0.0019339119841632125,9.914779960407959
151,988.5,760.9,56.1,814,45.31,1,Apollo,1000,4.0,2500,994.29,577.0,1.0,5.789999999999964,0.007609409909317865,42.18352477329452
152,994.29,577.0,56.5,957,48.03,1,Apollo,1000,4.0,2500,997.23,832.1,1.0,2.9400000000000546,0.0050953206239169055,24.49830155979248
153,997.23,832.1,55.2,914,46.76,1,Apollo,1000,4.0,2500,1000.5,670.1,1.0,3.269999999999982,0.003929816127869225,22.90454031967299
154,1000.5,670.1,69.9,726,34.15,1,Apollo,1000,4.0,2500,1001.15,682.5,1.0,0.6499999999999773,0.0009700044769437058,5.025011192359173
155,1001.15,682.5,67.1,748,34.48,1,Apollo,1000,4.0,2500,1001.8,640.0,1.0,0.6499999999999773,0.000952380952380919,4.980952380952207
156,1001.8,640.0,64.8,804,35.85,1,Apollo,1000,4.0,2500,1004.16,598.9,1.0,2.3600000000000136,0.0036875000000000215,18.658750000000108
157,1004.16,598.9,66.3,956,35.85,1,Apollo,1000,4.0,2500,1004.77,580.5,1.0,0.6100000000000136,0.0010185339789614521,4.986334947403685
158,1004.77,580.5,47.8,888,42.17,1,Apollo,1000,4.0,2500,1006.76,620.4,1.0,1.990000000000009,0.0034280792420327464,16.5301981050819
159,1006.76,620.4,61.4,812,38.45,1,Apollo,1000,4.0,2500,1008.66,685.8,1.0,1.8999999999999773,0.0030625402965828133,15.256350741456941
160,1008.66,685.8,65.6,702,35.25,1,Apollo,1000,4.0,2500,1010.28,712.3,1.0,1.6200000000000045,0.0023622047244094557,12.385511811023658
161,1010.28,712.3,69.2,759,32.68,1,Apollo,1000,4.0,2500,1011.22,674.2,1.0,0.9400000000000546,0.001319668678927495,7.0591716973189556
162,1011.22,674.2,65.7,698,32.4,1,Apollo,1000,4.0,2500,1012.81,695.7,1.0,1.5899999999999181,0.002358350637792818,12.255876594481718
163,1012.81,695.7,57.5,773,40.26,1,Apollo,1000,4.0,2500,1013.13,759.4,1.0,0.32000000000005,0.00045996837717414115,2.429920942935553
164,1013.13,759.4,57.8,926,44.37,1,Apollo,1000,4.0,2500,1016.55,784.2,1.0,3.419999999999959,0.0045035554385040285,24.938888596259908
165,1016.55,784.2,58.0,780,41.05,1,Apollo,1000,4.0,2500,1017.16,666.8,1.0,0.6100000000000136,0.0007778627901045825,4.38465697526151
166,1017.16,666.8,60.7,848,36.53,1,Apollo,1000,4.0,2500,1019.04,197.5,1.0,1.8799999999999955,0.002819436112777438,14.568590281943576
167,1019.04,197.5,99.6,219,6.44,1,Apollo,1000,4.0,2500,1020.52,552.8,1.0,1.4800000000000182,0.007493670886076041,24.654177215190174
168,1020.52,552.8,81.2,624,27.15,1,Apollo,1000,4.0,2500,1022.72,668.7,1.0,2.2000000000000455,0.003979739507959562,18.749348769899086
169,1022.72,668.7,63.6,759,41.86,1,Apollo,1000,4.0,2500,1023.08,684.6,1.0,0.36000000000001364,0.0005383580080753905,2.785895020188531
170,1023.08,684.6,63.6,740,42.65,1,Apollo,1000,4.0,2500,1024.02,774.4,1.0,0.9399999999999409,0.001373064563248526,7.1926614081210785
171,1024.02,774.4,63.1,815,41.55,1,Apollo,1000,4.0,2500,1025.0,704.4,1.0,0.9800000000000182,0.0012654958677686186,7.08373966942162
172,1025.0,704.4,62.7,888,45.38,1,Apollo,1000,4.0,2500,1025.62,688.4,1.0,0.6199999999998909,0.0008801817149345413,4.680454287335917
173,1025.62,688.4,65.1,816,40.74,1,Apollo,1000,4.0,2500,1027.8,666.7,1.0,2.1800000000000637,0.003166763509587542,16.63690877396911
174,1027.8,666.7,63.3,827,45.86,1,Apollo,1000,4.0,2500,1029.07,771.6,1.0,1.2699999999999818,0.0019049047547622347,9.842261886905515
175,1029.07,771.6,67.5,808,39.59,1,Apollo,1000,4.0,2500,1030.63,744.1,1.0,1.5600000000001728,0.0020217729393470357,11.29443234836828
176,1030.63,744.1,66.5,809,40.51,1,Apollo,1000,4.0,2500,1032.91,662.8,1.0,2.2799999999999727,0.0030641042870581544,16.780260717645277
177,1032.91,662.8,62.1,880,46.22,1,Apollo,1000,4.0,2500,1034.14,820.7,1.0,1.2300000000000182,0.0018557634278817416,9.559408569704427
178,1034.14,820.7,59.0,932,45.51,1,Apollo,1000,4.0,2500,1034.98,639.6,1.0,0.8399999999999181,0.001023516510295989,5.918791275739645
179,1034.98,639.6,64.3,829,52.81,1,Apollo,1000,4.0,2500,1036.54,674.2,1.0,1.5599999999999454,0.002439024390243817,12.337560975609325
180,1036.54,674.2,59.3,839,44.32,1,Apollo,1000,4.0,2500,1037.41,628.2,1.0,0.8700000000001182,0.0012904182735095197,6.706045683774272
181,1037.41,628.2,58.4,926,44.08,1,Apollo,1000,4.0,2500,1037.97,618.9,1.0,0.5599999999999454,0.0008914358484558189,4.468589621139329
182,1037.97,618.9,57.3,966,48.44,1,Apollo,1000,4.0,2500,1040.27,749.1,1.0,2.2999999999999545,0.0037162708030375738,18.490677007593753
183,1040.27,749.1,58.3,829,45.75,1,Apollo,1000,4.0,2500,1041.11,577.3,1.0,0.8399999999999181,0.0011213456147375759,6.163364036843612
184,1041.11,577.3,56.7,922,48.91,1,Apollo,1000,4.0,2500,1042.68,681.9,1.0,1.5700000000001637,0.002719556556383447,13.07889139095927
185,1042.68,681.9,66.6,953,41.39,1,Apollo,1000,4.0,2500,1043.32,636.1,1.0,0.6399999999998727,0.0009385540401816582,4.906385100453637
186,1043.32,636.1,63.4,911,41.82,1,Apollo,1000,4.0,2500,1044.26,765.7,1.0,0.9400000000000546,0.0014777550699576396,7.454387674894317
187,1044.26,765.7,57.2,874,47.52,1,Apollo,1000,4.0,2500,1046.65,704.5,1.0,2.3900000000001,0.003121326890427191,17.36331722606838
188,1046.65,704.5,66.8,968,38.69,1,Apollo,1000,4.0,2500,1048.26,695.0,1.0,1.6099999999999,0.002285308729595316,12.15327182398789
189,1048.26,695.0,77.9,682,25.9,1,Apollo,1000,4.0,2500,1049.19,686.8,1.0,0.9300000000000637,0.0013381294964029693,7.065323741007678
190,1049.19,686.8,74.2,701,26.31,1,Apollo,1000,4.0,2500,1050.14,679.0,1.0,0.9500000000000455,0.001383226557949979,7.258066394875129
191,1050.14,679.0,79.9,668,24.04,1,Apollo,1000,4.0,2500,1050.77,675.4,1.0,0.6299999999998818,0.0009278350515462177,4.839587628865072
192,1050.77,675.4,80.4,609,27.28,1,Apollo,1000,4.0,2500,1052.67,708.2,1.0,1.900000000000091,0.002813147764287964,14.632869410720273
193,1052.67,708.2,78.6,641,36.18,1,Apollo,1000,4.0,2500,1054.59,341.2,1.0,1.9199999999998454,0.0027110985597286713,14.45774639932106
194,1054.59,341.2,73.5,822,55.51,1,Apollo,1000,4.0,2500,1055.04,287.8,1.0,0.4500000000000455,0.0013188745603752799,5.097186400938382
195,1055.04,287.8,55.3,581,57.35,1,Apollo,1000,4.0,2500,1056.7,231.5,1.0,1.6600000000000819,0.00576789437109132,21.059735927728628
196,1056.7,231.5,67.1,954,35.69,1,Apollo,1000,4.0,2500,1057.07,232.2,1.0,0.36999999999989086,0.00159827213822847,5.475680345570739
197,1057.07,232.2,59.0,859,52.46,1,Apollo,1000,4.0,2500,1057.55,203.0,1.0,0.4800000000000182,0.002067183462532378,7.0879586563310175
198,1057.55,203.0,58.7,898,51.11,1,Apollo,1000,4.0,2500,1059.08,226.8,1.0,1.5299999999999727,0.007536945812807748,24.96236453201926
199,1059.08,226.8,62.0,912,47.37,1,Apollo,1000,4.0,2500,1061.0,233.3,1.0,1.9200000000000728,0.008465608465608787,28.84402116402226
200,1061.0,233.3,57.0,998,50.7,1,Apollo,1000,4.0,2500,1063.02,204.4,1.0,2.019999999999982,0.008658379768538284,29.72594942134564
201,1063.02,204.4,48.6,1017,51.13,1,Apollo,1000,4.0,2500,1064.54,196.1,1.0,1.5199999999999818,0.0074363992172210465,24.670998043052542
202,1064.54,196.1,63.5,1004,40.85,1,Apollo,1000,4.0,2500,1065.02,199.5,1.0,0.4800000000000182,0.002447730749617635,8.03932687404416
203,1065.02,199.5,58.1,972,51.99,1,Apollo,1000,4.0,2500,1066.56,262.2,1.0,1.5399999999999636,0.007719298245613853,25.45824561403449
204,1066.56,262.2,59.2,1004,42.68,1,Apollo,1000,4.0,2500,1072.54,211.8,1.0,5.980000000000018,0.02280701754385972,80.93754385964937
205,1072.54,211.8,55.1,929,50.54,1,Apollo,1000,4.0,2500,1074.55,244.4,1.0,2.009999999999991,0.00949008498583565,31.76521246458909
206,1074.55,244.4,57.1,930,51.82,1,Apollo,1000,4.0,2500,1076.0,241.2,1.0,1.4500000000000455,0.0059328968903438846,20.632242225859894
207,1076.0,241.2,70.0,688,42.4,1,Apollo,1000,4.0,2500,1077.04,286.2,1.0,1.0399999999999636,0.004311774461028041,14.939436152569957
208,1077.04,286.2,61.6,712,45.9,1,Apollo,1000,4.0,2500,1078.66,291.4,1.0,1.6200000000001182,0.005660377358490979,20.63094339622792
209,1078.66,291.4,62.2,800,36.05,1,Apollo,1000,4.0,2500,1080.56,321.4,1.0,1.8999999999998636,0.0065202470830468895,23.90061770761668
210,1080.56,321.4,56.2,857,34.0,1,Apollo,1000,4.0,2500,1081.07,323.5,1.0,0.5099999999999909,0.0015868077162414155,6.007019290603502
211,1081.07,323.5,75.4,887,31.16,1,Apollo,1000,4.0,2500,1082.5,423.8,1.0,1.4300000000000637,0.004420401854714262,16.77100463678591
212,1082.5,423.8,70.6,967,34.9,1,Apollo,1000,4.0,2500,1083.16,384.1,1.0,0.6600000000000819,0.0015573383671545111,6.533345917886605
213,1083.16,384.1,73.2,936,26.57,1,Apollo,1000,4.0,2500,1084.52,373.5,1.0,1.3599999999999,0.0035407445977607387,14.291861494401447
214,1084.52,373.5,89.0,853,13.92,1,Apollo,1000,4.0,2500,1086.62,474.6,1.0,2.099999999999909,0.005622489959839114,22.456224899597423
215,1086.62,474.6,98.3,227,2.28,1,Apollo,1000,4.0,2500,1087.03,451.0,1.0,0.41000000000008185,0.0008638853771598859,3.799713442900042
216,1087.03,451.0,98.8,319,2.32,1,Apollo,1000,4.0,2500,1088.64,451.8,1.0,1.6100000000001273,0.0035698447893572666,15.364611973393675
217,1088.64,451.8,97.1,338,3.66,1,Apollo,1000,4.0,2500,1089.03,443.0,1.0,0.38999999999987267,0.0008632138114207009,3.7180345285512426
218,1089.03,443.0,98.2,352,3.67,1,Apollo,1000,4.0,2500,1090.65,449.2,1.0,1.6200000000001182,0.0036568848758467684,15.622212189617393
219,1090.65,449.2,98.3,253,3.25,1,Apollo,1000,4.0,2500,1091.09,430.8,1.0,0.4399999999998272,0.000979519145146543,4.208797862865667
220,1091.09,430.8,98.6,343,2.54,1,Apollo,1000,4.0,2500,1092.52,459.7,1.0,1.4300000000000637,0.0033194057567318097,14.018514391829779
221,1092.52,459.7,97.0,329,4.61,1,Apollo,1000,4.0,2500,1093.13,482.7,1.0,0.6100000000001273,0.001326952360235213,5.757380900588542
222,1093.13,482.7,97.6,374,6.31,1,Apollo,1000,4.0,2500,1094.51,445.2,1.0,1.3799999999998818,0.0028589185829705445,12.667296457425888
223,1094.51,445.2,90.4,447,9.77,1,Apollo,1000,4.0,2500,1095.13,453.4,1.0,0.6200000000001182,0.001392632524708262,5.961581311771129
224,1095.13,453.4,94.6,411,6.54,1,Apollo,1000,4.0,2500,1096.57,428.3,1.0,1.4399999999998272,0.0031760035288924287,13.70000882223038
225,1096.57,428.3,83.1,724,22.41,1,Apollo,1000,4.0,2500,1097.16,456.5,1.0,0.5900000000001455,0.0013775391081021376,5.803847770255926
226,1097.16,456.5,76.4,928,25.18,1,Apollo,1000,4.0,2500,1098.55,443.6,1.0,1.3899999999998727,0.0030449069003283084,13.172267250820262
227,1098.55,443.6,65.1,780,43.93,1,Apollo,1000,4.0,2500,1099.07,339.2,1.0,0.5199999999999818,0.0011722272317402655,5.010568079350591
228,1099.07,339.2,63.7,870,32.54,1,Apollo,1000,4.0,2500,1100.5,258.3,1.0,1.4300000000000637,0.004215801886792641,16.25950471698186
229,1100.5,258.3,57.9,934,44.73,1,Apollo,1000,4.0,2500,1101.34,234.2,1.0,0.8399999999999181,0.0032520325203248862,11.490081300811887
230,1101.34,234.2,72.5,648,42.1,1,Apollo,1000,4.0,2500,1102.54,260.9,1.0,1.2000000000000455,0.005123825789923337,17.609564474808522
231,1102.54,260.9,57.3,829,40.29,1,Apollo,1000,4.0,2500,1104.58,253.0,1.0,2.0399999999999636,0.007819087773093,27.707719432732354
232,1104.58,253.0,52.2,724,47.31,1,Apollo,1000,4.0,2500,1105.02,211.8,1.0,0.44000000000005457,0.0017391304347828243,6.107826086957279
233,1105.02,211.8,70.0,1041,39.34,1,Apollo,1000,4.0,2500,1106.68,266.3,1.0,1.6600000000000819,0.007837582625118421,26.233956562796383
234,1106.68,266.3,74.5,592,31.32,1,Apollo,1000,4.0,2500,1107.51,293.6,1.0,0.8299999999999272,0.0031167855801724643,11.11196395043087
235,1107.51,293.6,55.1,834,46.11,1,Apollo,1000,4.0,2500,1109.12,265.7,1.0,1.6099999999999,0.005483651226157697,20.149128065393842
236,1109.12,265.7,53.7,719,42.99,1,Apollo,1000,4.0,2500,1110.67,392.4,1.0,1.550000000000182,0.005833646970267904,20.784117425670487
237,1110.67,392.4,61.8,926,34.68,1,Apollo,1000,4.0,2500,1111.06,404.7,1.0,0.38999999999987267,0.0009938837920486052,4.0447094801210035
238,1111.06,404.7,60.5,996,38.55,1,Apollo,1000,4.0,2500,1112.64,396.8,1.0,1.5800000000001546,0.003904126513467148,16.080316283668488
239,1112.64,396.8,67.2,962,36.68,1,Apollo,1000,4.0,2500,1113.04,438.0,1.0,0.3999999999998636,0.0010080645161286885,4.1201612903211755
240,1113.04,438.0,58.9,945,39.73,1,Apollo,1000,4.0,2500,1114.01,140.2,1.0,0.9700000000000273,0.0022146118721461812,9.416529680365562
241,1114.01,140.2,97.0,297,0.01,1,Apollo,1000,4.0,2500,1116.61,325.4,1.0,2.599999999999909,0.018544935805990793,56.76233951497662
242,1116.61,325.4,75.5,970,29.65,1,Apollo,1000,4.0,2500,1117.19,380.4,1.0,0.5800000000001546,0.0017824216349113541,6.776054087279004
243,1117.19,380.4,76.1,920,32.07,1,Apollo,1000,4.0,2500,1118.86,423.2,1.0,1.6699999999998454,0.004390115667717786,17.655289169293845
244,1118.86,423.2,77.5,965,26.91,1,Apollo,1000,4.0,2500,1119.07,499.8,1.0,0.21000000000003638,0.0004962192816636021,2.0805482041591508
245,1119.07,499.8,78.5,865,30.89,1,Apollo,1000,4.0,2500,1120.65,433.7,1.0,1.5800000000001546,0.0031612645058026302,14.223161264507194
246,1120.65,433.7,81.2,934,28.84,1,Apollo,1000,4.0,2500,1121.02,417.7,1.0,0.36999999999989086,0.0008531242794555935,3.612810698638547
247,1121.02,417.7,80.1,959,25.36,1,Apollo,1000,4.0,2500,1122.7,209.1,1.0,1.6800000000000637,0.004022025377065031,16.775063442662834
248,1122.7,209.1,78.8,581,28.14,1,Apollo,1000,4.0,2500,1123.31,439.1,1.0,0.6099999999999,0.002917264466761836,9.733161166904189
249,1123.31,439.1,73.0,700,31.82,1,Apollo,1000,4.0,2500,1124.63,454.2,1.0,1.3200000000001637,0.0030061489410160864,12.79537235254087
250,1124.63,454.2,67.6,780,39.91,1,Apollo,1000,4.0,2500,1125.5,522.8,1.0,0.8699999999998909,0.0019154557463669987,8.26863936591706
251,1125.5,522.8,65.3,711,38.27,1,Apollo,1000,4.0,2500,1127.09,527.6,1.0,1.5899999999999181,0.0030413159908185125,13.963289977045953
252,1127.09,527.6,64.3,899,39.83,1,Apollo,1000,4.0,2500,1128.63,449.6,1.0,1.540000000000191,0.0029188779378320523,13.457194844580894
253,1128.63,449.6,59.3,894,46.38,1,Apollo,1000,4.0,2500,1129.05,480.9,1.0,0.4199999999998454,0.0009341637010672717,4.015409252667561
254,1129.05,480.9,60.8,855,44.46,1,Apollo,1000,4.0,2500,1130.58,529.9,1.0,1.5299999999999727,0.003181534622582601,14.073836556456394
255,1130.58,529.9,64.2,788,39.95,1,Apollo,1000,4.0,2500,1131.02,486.3,1.0,0.44000000000005457,0.0008303453481790047,3.83586337044773
256,1131.02,486.3,65.8,883,39.97,1,Apollo,1000,4.0,2500,1133.0,383.7,1.0,1.9800000000000182,0.004071560764959938,18.098901912399917
257,1133.0,383.7,54.9,992,49.59,1,Apollo,1000,4.0,2500,1134.81,320.7,1.0,1.8099999999999454,0.004717227000260478,19.03306750065098
258,1134.81,320.7,55.9,740,45.91,1,Apollo,1000,4.0,2500,1135.22,347.1,1.0,0.41000000000008185,0.0012784533832244523,4.836133458061458
259,1135.22,347.1,55.8,806,51.92,1,Apollo,1000,4.0,2500,1140.52,261.2,1.0,5.2999999999999545,0.015269374819936486,59.37343704984103
260,1140.52,261.2,67.9,1065,37.07,1,Apollo,1000,4.0,2500,1141.03,264.5,1.0,0.5099999999999909,0.001952526799387408,6.921316998468484
261,1141.03,264.5,53.6,871,52.7,1,Apollo,1000,4.0,2500,1142.05,14.8,1.0,1.0199999999999818,0.003856332703213542,13.720831758033782
262,1142.05,14.8,67.5,337,38.78,1,Apollo,1000,4.0,2500,1145.12,247.3,1.0,3.0699999999999363,0.20743243243242815,530.8610810810701
263,1145.12,247.3,55.2,723,48.87,1,Apollo,1000,4.0,2500,1147.06,253.6,1.0,1.9400000000000546,0.00784472300849193,27.371807521230046
264,1147.06,253.6,55.0,833,49.61,1,Apollo,1000,4.0,2500,1150.58,262.9,1.0,3.519999999999982,0.013880126182965228,48.780315457412996
265,1150.58,262.9,54.2,809,49.73,1,Apollo,1000,4.0,2500,1154.54,237.8,1.0,3.9600000000000364,0.01506276150627629,53.49690376569087
266,1154.54,237.8,55.8,913,50.01,1,Apollo,1000,4.0,2500,1155.09,236.6,1.0,0.5499999999999545,0.002312867956265578,7.982169890663763
267,1155.09,236.6,53.8,850,50.24,1,Apollo,1000,4.0,2500,1158.51,254.1,1.0,3.4200000000000728,0.014454775993237839,49.81693998309489
268,1158.51,254.1,55.0,785,52.39,1,Apollo,1000,4.0,2500,1162.51,244.4,1.0,4.0,0.015741833923652106,55.354584809130266
269,1162.51,244.4,52.8,910,50.19,1,Apollo,1000,4.0,2500,1172.7,271.2,1.0,10.190000000000055,0.041693944353519044,144.99486088379783
270,1172.7,271.2,63.8,981,45.43,1,Apollo,1000,4.0,2500,1173.12,287.0,1.0,0.4199999999998454,0.0015486725663711113,5.55168141592716
271,1173.12,287.0,53.8,877,50.31,1,Apollo,1000,4.0,2500,1175.07,337.9,1.0,1.9500000000000455,0.006794425087108173,24.786062717770616
272,1175.07,337.9,59.0,709,52.12,1,Apollo,1000,4.0,2500,1175.62,351.8,1.0,0.5499999999999545,0.0016277005031072938,6.269251257768053
273,1175.62,351.8,53.8,933,40.73,1,Apollo,1000,4.0,2500,1177.19,374.0,1.0,1.5700000000001637,0.0044627629334853995,17.436907333714153
274,1177.19,374.0,70.7,812,29.91,1,Apollo,1000,4.0,2500,1178.65,408.4,1.0,1.4600000000000364,0.0039037433155081186,15.599358288770443
275,1178.65,408.4,56.2,962,50.29,1,Apollo,1000,4.0,2500,1179.09,362.5,1.0,0.4399999999998272,0.0010773751224285681,4.453437806070729
276,1179.09,362.5,77.3,963,28.18,1,Apollo,1000,4.0,2500,1180.56,369.4,1.0,1.4700000000000273,0.004055172413793179,16.017931034483055
277,1180.56,369.4,59.0,960,42.47,1,Apollo,1000,4.0,2500,1181.16,323.5,1.0,0.6000000000001364,0.0016242555495401636,6.460638873850955
278,1181.16,323.5,57.0,785,50.32,1,Apollo,1000,4.0,2500,1184.57,284.2,1.0,3.4099999999998545,0.01054095826893309,39.992395672332144
279,1184.57,284.2,78.4,1070,25.75,1,Apollo,1000,4.0,2500,1185.27,320.5,1.0,0.7000000000000455,0.0024630541871922783,8.957635467980879
280,1185.27,320.5,57.4,1031,47.1,1,Apollo,1000,4.0,2500,1186.16,378.6,1.0,0.8900000000001,0.00277691107644337,10.502277691108825
281,1186.16,378.6,78.4,890,21.9,1,Apollo,1000,4.0,2500,1187.03,374.0,1.0,0.8699999999998909,0.002297939778129664,9.224849445323724
282,1187.03,374.0,70.1,776,30.83,1,Apollo,1000,4.0,2500,4007.04,40.0,1.0,2820.01,7.540133689839572,30130.37422459893
283,4007.04,40.0,124.8,174,13.81,1,Apollo,1000,4.0,2500,4008.59,126.3,1.0,1.550000000000182,0.038750000000004545,103.0750000000121
284,4008.59,126.3,117.9,452,26.53,1,Apollo,1000,4.0,2500,4009.02,158.1,1.0,0.4299999999998363,0.0034045922406954576,10.231480601737989
285,4009.02,158.1,113.1,445,30.31,1,Apollo,1000,4.0,2500,4010.03,226.8,1.0,1.0100000000002183,0.006388361796332817,20.010904490832914
286,4010.03,226.8,105.5,517,39.47,1,Apollo,1000,4.0,2500,4011.1,213.7,1.0,1.069999999999709,0.004717813051145101,16.074532627861586
287,4011.1,213.7,101.7,596,41.87,1,Apollo,1000,4.0,2500,4012.5,212.7,1.0,1.400000000000091,0.006551240056153912,21.978100140385145
288,4012.5,212.7,100.4,610,42.6,1,Apollo,1000,4.0,2500,4013.08,218.0,1.0,0.5799999999999272,0.0027268453220494937,9.137113305123442
289,4013.08,218.0,99.9,570,43.47,1,Apollo,1000,4.0,2500,4014.54,220.1,1.0,1.4600000000000364,0.006697247706422185,22.583119266055608
290,4014.54,220.1,100.7,575,41.92,1,Apollo,1000,4.0,2500,4015.06,218.7,1.0,0.5199999999999818,0.002362562471603734,7.986406179009262
291,4015.06,218.7,100.1,591,42.94,1,Apollo,1000,4.0,2500,4016.54,221.3,1.0,1.4800000000000182,0.006767261088248827,22.83815272062214
292,4016.54,221.3,100.0,627,43.19,1,Apollo,1000,4.0,2500,4017.01,217.6,1.0,0.47000000000025466,0.0021238138273847926,7.189534568463
293,4017.01,217.6,101.3,652,43.14,1,Apollo,1000,4.0,2500,4018.5,215.7,1.0,1.4899999999997817,0.006847426470587233,23.07856617646721
294,4018.5,215.7,99.2,619,43.79,1,Apollo,1000,4.0,2500,4019.07,210.2,1.0,0.5700000000001637,0.0026425591098755852,8.886397774689618
295,4019.07,210.2,99.3,722,43.26,1,Apollo,1000,4.0,2500,4020.52,218.8,1.0,1.449999999999818,0.0068981921979058905,23.045480494764
296,4020.52,218.8,97.8,597,43.4,1,Apollo,1000,4.0,2500,4021.2,208.3,1.0,0.6799999999998363,0.0031078610603283196,10.489652650820144
297,4021.2,208.3,99.4,584,43.03,1,Apollo,1000,4.0,2500,4022.06,220.0,1.0,0.8600000000001273,0.004128660585694322,13.761651464236314
298,4022.06,220.0,99.3,713,44.47,1,Apollo,1000,4.0,2500,4023.03,216.8,1.0,0.9700000000002547,0.0044090909090920664,14.902727272731184
299,4023.03,216.8,98.2,629,43.24,1,Apollo,1000,4.0,2500,4023.5,207.6,1.0,0.4699999999997999,0.002167896678965867,7.299741697413867
300,4023.5,207.6,98.5,602,43.27,1,Apollo,1000,4.0,2500,4025.16,214.7,1.0,1.6599999999998545,0.007996146435452094,26.630366088629653
301,4025.16,214.7,99.9,643,43.19,1,Apollo,1000,4.0,2500,4026.02,207.6,1.0,0.8600000000001273,0.004005589194225093,13.453972985563242
302,4026.02,207.6,100.0,608,44.36,1,Apollo,1000,4.0,2500,4027.05,210.4,1.0,1.0300000000002,0.004961464354528902,16.523660886323057
303,4027.05,210.4,96.6,630,44.84,1,Apollo,1000,4.0,2500,4028.68,205.8,1.0,1.6299999999996544,0.007747148288971741,25.88787072242797
304,4028.68,205.8,99.7,612,42.79,1,Apollo,1000,4.0,2500,4029.17,219.0,1.0,0.49000000000023647,0.0023809523809535296,7.91238095238477
305,4029.17,219.0,99.1,606,43.71,1,Apollo,1000,4.0,2500,4030.07,226.3,1.0,0.900000000000091,0.004109589041096306,13.87397260274113
306,4030.07,226.3,99.2,609,44.71,1,Apollo,1000,4.0,2500,4031.09,220.4,1.0,1.0199999999999818,0.004507291206363154,15.348228015907813
307,4031.09,220.4,97.7,711,45.07,1,Apollo,1000,4.0,2500,4032.69,220.5,1.0,1.599999999999909,0.007259528130671093,24.54882032667737
308,4032.69,220.5,96.1,653,45.64,1,Apollo,1000,4.0,2500,4033.18,221.6,1.0,0.4899999999997817,0.002222222222221232,7.515555555552207
309,4033.18,221.6,97.8,624,45.15,1,Apollo,1000,4.0,2500,4034.5,224.8,1.0,1.3200000000001637,0.00595667870036175,20.17169675090503
310,4034.5,224.8,100.4,643,44.29,1,Apollo,1000,4.0,2500,4035.04,218.7,1.0,0.5399999999999636,0.0024021352313165637,8.165338078291263
311,4035.04,218.7,96.7,629,44.22,1,Apollo,1000,4.0,2500,4036.54,214.2,1.0,1.5,0.006858710562414267,23.146776406035666
312,4036.54,214.2,98.2,669,45.34,1,Apollo,1000,4.0,2500,4037.02,213.2,1.0,0.4800000000000182,0.002240896358543502,7.522240896358828
313,4037.02,213.2,97.7,662,45.87,1,Apollo,1000,4.0,2500,4038.54,208.1,1.0,1.5199999999999818,0.007129455909943629,23.903639774859
314,4038.54,208.1,97.5,597,44.8,1,Apollo,1000,4.0,2500,4039.06,204.1,1.0,0.5199999999999818,0.002498798654492945,8.326996636232291
315,4039.06,204.1,93.6,703,46.85,1,Apollo,1000,4.0,2500,4040.55,227.0,1.0,1.4900000000002365,0.007300342969133937,24.210857422835787
316,4040.55,227.0,98.2,700,44.06,1,Apollo,1000,4.0,2500,4041.07,217.0,1.0,0.5199999999999818,0.002290748898678334,7.806872246695762
317,4041.07,217.0,95.0,728,44.15,1,Apollo,1000,4.0,2500,4042.17,223.9,1.0,1.099999999999909,0.005069124423962714,17.07281105990642
318,4042.17,223.9,96.9,644,44.38,1,Apollo,1000,4.0,2500,4044.51,231.9,1.0,2.3400000000001455,0.01045109423849998,35.48773559625053
319,4044.51,231.9,97.4,631,44.91,1,Apollo,1000,4.0,2500,4045.04,229.5,1.0,0.5299999999997453,0.0022854678740825587,7.833669685205378
320,4045.04,229.5,96.4,646,45.01,1,Apollo,1000,4.0,2500,4046.62,222.3,1.0,1.5799999999999272,0.006884531590413626,23.531328976033773
321,4046.62,222.3,95.9,711,45.15,1,Apollo,1000,4.0,2500,4047.02,223.2,1.0,0.40000000000009095,0.001799370220423261,6.098425551058517
322,4047.02,223.2,94.8,633,44.89,1,Apollo,1000,4.0,2500,4048.53,225.7,1.0,1.5100000000002183,0.0067652329749113725,22.953082437279303
323,4048.53,225.7,97.3,637,44.79,1,Apollo,1000,4.0,2500,4049.03,224.4,1.0,0.5,0.0022153300841825435,7.5383252104563585
324,4049.03,224.4,95.9,729,46.04,1,Apollo,1000,4.0,2500,4050.51,223.4,1.0,1.4800000000000182,0.0065953654188949115,22.408413547237352
325,4050.51,223.4,95.9,702,44.97,1,Apollo,1000,4.0,2500,4051.01,225.5,1.0,0.5,0.0022381378692927483,7.595344673231871
326,4051.01,225.5,95.9,643,43.57,1,Apollo,1000,4.0,2500,4052.53,225.1,1.0,1.5199999999999818,0.006740576496673978,22.931441241684873
327,4052.53,225.1,96.1,685,45.0,1,Apollo,1000,4.0,2500,4053.09,230.2,1.0,0.5599999999999454,0.0024877832074631074,8.45945801865755
328,4053.09,230.2,96.3,630,44.44,1,Apollo,1000,4.0,2500,4053.6,224.6,1.0,0.5099999999997635,0.002215464813204881,7.578662033011256
329,4053.6,224.6,97.2,656,44.43,1,Apollo,1000,4.0,2500,4055.1,219.8,1.0,1.5,0.0066785396260017815,22.696349065004455
330,4055.1,219.8,95.8,749,45.71,1,Apollo,1000,4.0,2500,4056.12,222.5,1.0,1.0199999999999818,0.004640582347588634,15.681455868971511
331,4056.12,222.5,94.4,616,45.2,1,Apollo,1000,4.0,2500,4057.0,229.3,1.0,0.8800000000001091,0.003955056179775771,13.407640449439864
332,4057.0,229.3,97.5,676,45.85,1,Apollo,1000,4.0,2500,4058.59,219.2,1.0,1.5900000000001455,0.00693414740514673,23.695368512867407
333,4058.59,219.2,93.7,620,45.22,1,Apollo,1000,4.0,2500,4059.03,205.5,1.0,0.44000000000005457,0.0020072992700732417,6.778248175183323
334,4059.03,205.5,97.6,717,46.73,1,Apollo,1000,4.0,2500,4060.01,179.1,1.0,0.9800000000000182,0.004768856447688653,15.842141119221704
335,4060.01,179.1,129.0,160,16.21,1,Apollo,1000,4.0,2500,4061.09,158.9,1.0,1.0799999999999272,0.006030150753768438,19.395376884420806
336,4061.09,158.9,109.1,531,38.07,1,Apollo,1000,4.0,2500,4062.53,225.9,1.0,1.4400000000000546,0.009062303335431432,28.415758338578797
337,4062.53,225.9,100.3,653,44.58,1,Apollo,1000,4.0,2500,4064.56,206.3,1.0,2.0299999999997453,0.008986277113766025,30.585692784414043
338,4064.56,206.3,98.6,587,44.82,1,Apollo,1000,4.0,2500,4065.05,206.8,1.0,0.49000000000023647,0.0023751817741165123,7.897954435292227
339,4065.05,206.8,102.7,704,44.84,1,Apollo,1000,4.0,2500,4066.56,202.2,1.0,1.5099999999997635,0.007301740812377966,24.29435203094397
340,4066.56,202.2,103.0,592,44.75,1,Apollo,1000,4.0,2500,4067.0,202.0,1.0,0.44000000000005457,0.0021760633036600127,7.20015825915025
341,4067.0,202.0,100.2,621,45.06,1,Apollo,1000,4.0,2500,4067.66,200.0,1.0,0.6599999999998545,0.003267326732672547,10.808316831680784
342,4067.66,200.0,100.8,675,44.98,1,Apollo,1000,4.0,2500,4069.12,208.7,1.0,1.4600000000000364,0.007300000000000181,24.0900000000006
343,4069.12,208.7,101.4,677,43.51,1,Apollo,1000,4.0,2500,4070.56,198.4,1.0,1.4400000000000546,0.006899856252994991,23.009640632487695
344,4070.56,198.4,102.4,562,43.77,1,Apollo,1000,4.0,2500,4071.02,199.3,1.0,0.4600000000000364,0.0023185483870969575,7.636370967742539
345,4071.02,199.3,100.7,569,44.97,1,Apollo,1000,4.0,2500,4072.57,208.1,1.0,1.550000000000182,0.007777220270949231,25.643050677373807
346,4072.57,208.1,100.9,684,44.3,1,Apollo,1000,4.0,2500,4073.07,200.4,1.0,0.5,0.002402691013935608,8.006727534839019
347,4073.07,200.4,102.4,683,45.05,1,Apollo,1000,4.0,2500,4074.04,219.5,1.0,0.9699999999997999,0.004840319361276447,15.980798403190317
348,4074.04,219.5,101.8,645,44.78,1,Apollo,1000,4.0,2500,4075.0,210.3,1.0,0.9600000000000364,0.0043735763097951545,14.773940774488032
349,4075.0,210.3,99.4,617,44.42,1,Apollo,1000,4.0,2500,4076.06,208.4,1.0,1.0599999999999454,0.005040418449833312,16.84104612458306
350,4076.06,208.4,99.4,613,44.36,1,Apollo,1000,4.0,2500,4078.09,218.6,1.0,2.0300000000002,0.00974088291746737,32.47220729366923
351,4078.09,218.6,99.9,655,44.44,1,Apollo,1000,4.0,2500,4080.55,214.5,1.0,2.4600000000000364,0.01125343092406238,37.973577310156095
352,4080.55,214.5,99.8,608,44.32,1,Apollo,1000,4.0,2500,4081.04,214.7,1.0,0.4899999999997817,0.0022843822843812665,7.670955710952293
353,4081.04,214.7,99.4,618,44.93,1,Apollo,1000,4.0,2500,4082.53,219.4,1.0,1.4900000000002365,0.006939916162087734,23.30979040522028
354,4082.53,219.4,98.4,653,45.84,1,Apollo,1000,4.0,2500,4083.02,226.2,1.0,0.4899999999997817,0.0022333637192332805,7.543409298082328
355,4083.02,226.2,99.0,721,45.08,1,Apollo,1000,4.0,2500,4084.51,219.5,1.0,1.4900000000002365,0.006587091069850736,22.427727674627786
356,4084.51,219.5,98.2,708,45.57,1,Apollo,1000,4.0,2500,4086.57,213.0,1.0,2.0599999999999454,0.009384965831434831,31.702414578586858
357,4086.57,213.0,97.8,701,45.22,1,Apollo,1000,4.0,2500,4087.04,203.6,1.0,0.4699999999997999,0.0022065727699521124,7.39643192487948
358,4087.04,203.6,97.9,636,45.8,1,Apollo,1000,4.0,2500,4088.52,216.4,1.0,1.4800000000000182,0.007269155206286926,24.09288801571739
359,4088.52,216.4,100.2,672,44.84,1,Apollo,1000,4.0,2500,4089.01,226.5,1.0,0.49000000000023647,0.002264325323476139,7.620813308691293
360,4089.01,226.5,98.8,698,45.98,1,Apollo,1000,4.0,2500,4090.53,216.3,1.0,1.5199999999999818,0.006710816777041863,22.857041942604585
361,4090.53,216.3,100.1,639,43.73,1,Apollo,1000,4.0,2500,4092.01,207.5,1.0,1.4800000000000182,0.006842348589921489,23.025871474803797
362,4092.01,207.5,98.5,621,45.64,1,Apollo,1000,4.0,2500,4093.0,233.8,1.0,0.9899999999997817,0.0047710843373483455,15.887710843369991
363,4093.0,233.8,98.5,619,45.1,1,Apollo,1000,4.0,2500,4094.57,215.6,1.0,1.5700000000001637,0.006715141146279571,23.06785286569958
364,4094.57,215.6,99.7,680,44.68,1,Apollo,1000,4.0,2500,4096.54,217.9,1.0,1.9699999999998,0.009137291280147496,30.723228200367938
365,4096.54,217.9,97.1,645,44.49,1,Apollo,1000,4.0,2500,4098.52,212.8,1.0,1.980000000000473,0.00908673703533948,30.636842588350593
366,4098.52,212.8,100.3,629,43.84,1,Apollo,1000,4.0,2500,4099.01,213.1,1.0,0.4899999999997817,0.0023026315789463426,7.716578947364983
367,4099.01,213.1,96.6,726,45.23,1,Apollo,1000,4.0,2500,4100.51,233.5,1.0,1.5,0.0070389488503050214,23.597372125762554
368,4100.51,233.5,98.9,625,45.3,1,Apollo,1000,4.0,2500,4102.57,204.8,1.0,2.0599999999994907,0.008822269807278333,30.295674518193795
369,4102.57,204.8,99.5,584,43.5,1,Apollo,1000,4.0,2500,4103.01,214.8,1.0,0.4400000000005093,0.002148437500002487,7.1310937500082545
370,4103.01,214.8,99.9,683,44.56,1,Apollo,1000,4.0,2500,4104.54,217.5,1.0,1.5299999999997453,0.007122905027931775,23.927262569828418
371,4104.54,217.5,97.2,705,45.13,1,Apollo,1000,4.0,2500,4105.04,224.4,1.0,0.5,0.0022988505747126436,7.747126436781609
372,4105.04,224.4,98.9,731,46.19,1,Apollo,1000,4.0,2500,4106.5,220.2,1.0,1.4600000000000364,0.006506238859180198,22.10559714795064
373,4106.5,220.2,99.5,627,43.59,1,Apollo,1000,4.0,2500,4107.62,221.6,1.0,1.1199999999998909,0.005086285195276525,17.195712988190877
374,4107.62,221.6,99.7,750,44.67,1,Apollo,1000,4.0,2500,4109.02,220.4,1.0,1.4000000000005457,0.0063176895306883835,21.39422382672314
375,4109.02,220.4,98.5,611,44.54,1,Apollo,1000,4.0,2500,4110.55,225.5,1.0,1.5299999999997453,0.006941923774953472,23.47480943738266
376,4110.55,225.5,99.5,683,43.92,1,Apollo,1000,4.0,2500,4112.51,233.7,1.0,1.9600000000000364,0.008691796008869341,29.569490022173497
377,4112.51,233.7,97.1,737,44.77,1,Apollo,1000,4.0,2500,4113.01,224.9,1.0,0.5,0.002139495079161318,7.348737697903295
378,4113.01,224.9,96.7,684,44.73,1,Apollo,1000,4.0,2500,4114.67,233.2,1.0,1.6599999999998545,0.007381058248109624,25.09264562027348
379,4114.67,233.2,99.2,675,43.71,1,Apollo,1000,4.0,2500,4115.0,234.7,1.0,0.32999999999992724,0.0014150943396223294,4.8577358490555325
380,4115.0,234.7,98.7,734,45.35,1,Apollo,1000,4.0,2500,4116.63,230.9,1.0,1.6300000000001091,0.006945036216446993,23.88259054111792
381,4116.63,230.9,98.3,742,45.66,1,Apollo,1000,4.0,2500,4117.07,232.2,1.0,0.4399999999995998,0.001905586834125595,6.523967085312386
382,4117.07,232.2,97.8,698,44.22,1,Apollo,1000,4.0,2500,4118.09,229.3,1.0,1.0200000000004366,0.004392764857883018,15.06191214470929
383,4118.09,229.3,97.4,734,45.0,1,Apollo,1000,4.0,2500,4119.12,229.3,1.0,1.0299999999997453,0.004491931966854537,15.349829917135324
384,4119.12,229.3,97.7,770,44.96,1,Apollo,1000,4.0,2500,4120.56,224.6,1.0,1.4400000000005093,0.006279982555606233,21.45995638901762
385,4120.56,224.6,98.5,724,44.68,1,Apollo,1000,4.0,2500,4121.07,224.6,1.0,0.5099999999993088,0.002270703472837528,7.716758682091055
386,4121.07,224.6,99.7,681,43.63,1,Apollo,1000,4.0,2500,4122.55,231.6,1.0,1.480000000000473,0.0065894924309905295,22.393731077478215
387,4122.55,231.6,98.6,649,45.51,1,Apollo,1000,4.0,2500,4123.07,219.0,1.0,0.5199999999995271,0.0022452504317768875,7.693126079440327
388,4123.07,219.0,96.6,636,44.36,1,Apollo,1000,4.0,2500,4124.0,233.4,1.0,0.930000000000291,0.004246575342467082,14.33643835616887
389,4124.0,233.4,94.6,779,44.99,1,Apollo,1000,4.0,2500,4126.51,232.1,1.0,2.5100000000002183,0.010754070265639324,36.925175664099186
390,4126.51,232.1,95.7,675,44.47,1,Apollo,1000,4.0,2500,4127.03,233.3,1.0,0.5199999999995271,0.00224041361481916,7.681034037046008
391,4127.03,233.3,98.2,714,44.5,1,Apollo,1000,4.0,2500,4128.62,221.7,1.0,1.5900000000001455,0.006815259322761017,23.398148306903124
392,4128.62,221.7,96.9,707,45.09,1,Apollo,1000,4.0,2500,4129.02,224.0,1.0,0.4000000000005457,0.001804239963917662,6.110599909796338
393,4129.02,224.0,97.5,681,44.86,1,Apollo,1000,4.0,2500,4129.51,220.4,1.0,0.4899999999997817,0.0021874999999990257,7.4287499999966915
394,4129.51,220.4,98.5,705,45.16,1,Apollo,1000,4.0,2500,4131.0,214.6,1.0,1.4899999999997817,0.006760435571686849,22.86108892921625
395,4131.0,214.6,96.3,760,46.38,1,Apollo,1000,4.0,2500,4132.56,214.1,1.0,1.5600000000004002,0.007269338303822928,24.413345759558922
396,4132.56,214.1,94.0,751,47.67,1,Apollo,1000,4.0,2500,4133.09,196.5,1.0,0.5299999999997453,0.0024754787482472924,8.308696870617212
397,4133.09,196.5,96.6,669,44.79,1,Apollo,1000,4.0,2500,4134.53,208.4,1.0,1.4399999999995998,0.0073282442748071235,24.080610687016208
398,4134.53,208.4,95.4,653,44.02,1,Apollo,1000,4.0,2500,4135.05,219.2,1.0,0.5200000000004366,0.002495201535510732,8.318003838778576
399,4135.05,219.2,97.0,693,41.77,1,Apollo,1000,4.0,2500,4136.6,211.5,1.0,1.550000000000182,0.007071167883212509,23.877919708032
400,4136.6,211.5,97.3,682,44.88,1,Apollo,1000,4.0,2500,4138.53,228.7,1.0,1.9299999999993815,0.009125295508271307,30.533238770675794
401,4138.53,228.7,97.7,673,44.31,1,Apollo,1000,4.0,2500,4140.5,227.9,1.0,1.9700000000002547,0.00861390467861939,29.414761696549494
402,4140.5,227.9,97.2,655,44.46,1,Apollo,1000,4.0,2500,4141.01,223.4,1.0,0.5100000000002183,0.0022378236068460655,7.634559017116037
403,4141.01,223.4,98.1,694,43.71,1,Apollo,1000,4.0,2500,4142.54,222.8,1.0,1.5299999999997453,0.00684870188003467,23.241754700085657
404,4142.54,222.8,97.0,663,45.21,1,Apollo,1000,4.0,2500,4143.07,228.3,1.0,0.5299999999997453,0.002378815080788803,8.067037701970989
405,4143.07,228.3,94.7,701,44.85,1,Apollo,1000,4.0,2500,4144.58,221.1,1.0,1.5100000000002183,0.006614104248796401,22.575260621991877
406,4144.58,221.1,96.7,686,43.81,1,Apollo,1000,4.0,2500,4146.56,226.9,1.0,1.980000000000473,0.008955223880599154,30.30805970149978
407,4146.56,226.9,95.8,667,44.02,1,Apollo,1000,4.0,2500,4147.07,238.0,1.0,0.5099999999993088,0.002247686205373772,7.659215513431665
408,4147.07,238.0,96.6,751,44.89,1,Apollo,1000,4.0,2500,4148.59,228.0,1.0,1.5200000000004366,0.006386554621850574,22.046386554628178
409,4148.59,228.0,96.3,744,44.93,1,Apollo,1000,4.0,2500,4150.5,232.5,1.0,1.9099999999998545,0.008377192982455503,28.582982456138176
410,4150.5,232.5,98.7,782,44.67,1,Apollo,1000,4.0,2500,4151.05,236.1,1.0,0.5500000000001819,0.0023655913978502447,8.11397849462634
411,4151.05,236.1,96.2,772,44.93,1,Apollo,1000,4.0,2500,4152.51,222.4,1.0,1.4600000000000364,0.00618382041507851,21.29955103769642
412,4152.51,222.4,94.4,782,45.81,1,Apollo,1000,4.0,2500,4153.08,217.4,1.0,0.569999999999709,0.002562949640286461,8.687374100714989
413,4153.08,217.4,94.3,682,44.82,1,Apollo,1000,4.0,2500,4154.56,219.7,1.0,1.480000000000473,0.00680772769089454,22.93931922723824
414,4154.56,219.7,95.3,699,44.26,1,Apollo,1000,4.0,2500,4156.52,124.0,1.0,1.9600000000000364,0.008921256258534531,30.143140646336473
415,4156.52,124.0,142.8,148,3.12,1,Apollo,1000,4.0,2500,4157.04,47.2,1.0,0.5199999999995271,0.00419354838709296,12.563870967730509
416,4157.04,47.2,131.8,178,14.84,1,Apollo,1000,4.0,2500,4158.57,243.5,1.0,1.5299999999997453,0.03241525423728274,87.15813559320583
417,4158.57,243.5,106.1,593,40.62,1,Apollo,1000,4.0,2500,4160.52,215.1,1.0,1.9500000000007276,0.008008213552364385,27.820533880913874
418,4160.52,215.1,101.8,625,44.04,1,Apollo,1000,4.0,2500,4162.11,220.5,1.0,1.589999999999236,0.007391910739187522,24.839776847965748
419,4162.11,220.5,101.9,704,45.4,1,Apollo,1000,4.0,2500,4163.01,221.5,1.0,0.9000000000005457,0.0040816326530636994,13.80408163266143
420,4163.01,221.5,100.4,593,44.85,1,Apollo,1000,4.0,2500,4164.56,210.0,1.0,1.550000000000182,0.0069977426636577056,23.69435665914499
421,4164.56,210.0,100.5,597,46.41,1,Apollo,1000,4.0,2500,4165.0,205.7,1.0,0.4399999999995998,0.0020952380952361897,6.998095238088873
422,4165.0,205.7,100.4,544,44.51,1,Apollo,1000,4.0,2500,4166.54,206.6,1.0,1.5399999999999636,0.007486631016042604,24.876577540106364
423,4166.54,206.6,100.3,658,46.2,1,Apollo,1000,4.0,2500,4167.04,210.5,1.0,0.5,0.002420135527589545,8.050338818973863
424,4167.04,210.5,102.6,596,42.0,1,Apollo,1000,4.0,2500,4168.57,222.3,1.0,1.5299999999997453,0.007268408551067673,24.291021377668162
425,4168.57,222.3,103.1,599,43.13,1,Apollo,1000,4.0,2500,4169.07,220.7,1.0,0.5,0.002249212775528565,7.623031938821413
426,4169.07,220.7,101.3,678,45.02,1,Apollo,1000,4.0,2500,4170.54,217.8,1.0,1.4700000000002547,0.006660625283191004,22.53156320797853
427,4170.54,217.8,98.8,636,45.51,1,Apollo,1000,4.0,2500,4171.02,216.6,1.0,0.48000000000047294,0.002203856749313466,7.429641873285557
428,4171.02,216.6,101.6,590,45.29,1,Apollo,1000,4.0,2500,4172.02,217.9,1.0,1.0,0.0046168051708217915,15.54201292705448
429,4172.02,217.9,101.7,703,45.05,1,Apollo,1000,4.0,2500,4173.1,219.3,1.0,1.0799999999999272,0.004956402019274563,16.711005048186117
430,4173.1,219.3,102.4,629,43.93,1,Apollo,1000,4.0,2500,4174.59,221.8,1.0,1.4899999999997817,0.006794345645233842,22.945864113083733
431,4174.59,221.8,101.5,671,44.62,1,Apollo,1000,4.0,2500,4175.1,219.5,1.0,0.5100000000002183,0.0022993688007223547,7.78842200180676
432,4175.1,219.5,100.8,653,44.71,1,Apollo,1000,4.0,2500,4176.58,222.1,1.0,1.4799999999995634,0.006742596810931953,22.776492027328135
433,4176.58,222.1,99.2,728,45.6,1,Apollo,1000,4.0,2500,4177.18,212.3,1.0,0.6000000000003638,0.0027014858172010976,9.153714543004199
434,4177.18,212.3,101.9,648,44.89,1,Apollo,1000,4.0,2500,4178.58,221.2,1.0,1.3999999999996362,0.006594441827600735,22.086104569000383
435,4178.58,221.2,101.1,670,45.69,1,Apollo,1000,4.0,2500,4179.08,225.0,1.0,0.5,0.0022603978300180833,7.650994575045208
436,4179.08,225.0,99.5,607,44.82,1,Apollo,1000,4.0,2500,4180.09,214.8,1.0,1.0100000000002183,0.004488888888889859,15.262222222225521
437,4180.09,214.8,101.0,618,45.91,1,Apollo,1000,4.0,2500,4181.07,220.9,1.0,0.9799999999995634,0.00456238361266091,15.325959031650529
438,4181.07,220.9,98.0,654,45.6,1,Apollo,1000,4.0,2500,4182.6,204.1,1.0,1.5300000000006548,0.0069262109551863045,23.43552738796838
439,4182.6,204.1,100.6,714,45.25,1,Apollo,1000,4.0,2500,4183.08,224.9,1.0,0.47999999999956344,0.0023517883390473467,7.799470847616621
440,4183.08,224.9,100.8,627,45.22,1,Apollo,1000,4.0,2500,4184.52,223.1,1.0,1.4400000000005093,0.006402845709206355,21.767114273017924
441,4184.52,223.1,99.6,727,44.41,1,Apollo,1000,4.0,2500,4186.5,212.6,1.0,1.9799999999995634,0.008874943971311356,30.107359928276644
442,4186.5,212.6,99.9,676,44.78,1,Apollo,1000,4.0,2500,4187.02,231.9,1.0,0.5200000000004366,0.002445907808092364,8.194769520232656
443,4187.02,231.9,98.4,629,44.7,1,Apollo,1000,4.0,2500,4188.53,223.5,1.0,1.5099999999993088,0.006511427339367438,22.31856834841583
444,4188.53,223.5,100.6,688,44.81,1,Apollo,1000,4.0,2500,4189.04,223.5,1.0,0.5100000000002183,0.002281879194631849,7.744697986580496
445,4189.04,223.5,100.5,704,44.08,1,Apollo,1000,4.0,2500,4190.51,214.3,1.0,1.4700000000002547,0.00657718120805483,22.322953020138094
446,4190.51,214.3,97.8,653,44.23,1,Apollo,1000,4.0,2500,4191.02,222.8,1.0,0.5100000000002183,0.0023798413439114242,7.989603359779434
447,4191.02,222.8,98.0,721,44.89,1,Apollo,1000,4.0,2500,4192.52,234.7,1.0,1.5,0.006732495511669659,22.831238779174146
448,4192.52,234.7,98.6,644,44.82,1,Apollo,1000,4.0,2500,4193.02,217.1,1.0,0.5,0.002130379207498935,7.325948018747337
449,4193.02,217.1,99.3,624,45.76,1,Apollo,1000,4.0,2500,4194.56,222.0,1.0,1.5399999999999636,0.007093505297097944,23.893763242744715
450,4194.56,222.0,98.3,633,46.12,1,Apollo,1000,4.0,2500,4195.05,221.5,1.0,0.4899999999997817,0.002207207207206224,7.478018018014687
451,4195.05,221.5,99.9,634,43.91,1,Apollo,1000,4.0,2500,4196.0,214.7,1.0,0.9499999999998181,0.004288939051917915,14.522347629794059
452,4196.0,214.7,98.9,617,45.47,1,Apollo,1000,4.0,2500,4197.0,202.2,1.0,1.0,0.004657661853749418,15.644154634373544
453,4197.0,202.2,98.8,693,46.35,1,Apollo,1000,4.0,2500,4198.5,207.2,1.0,1.5,0.007418397626112761,24.545994065281903
454,4198.5,207.2,99.0,706,45.86,1,Apollo,1000,4.0,2500,4199.03,217.7,1.0,0.5299999999997453,0.0025579150579138287,8.514787644783553
455,4199.03,217.7,100.6,694,43.23,1,Apollo,1000,4.0,2500,4200.52,226.8,1.0,1.4900000000006912,0.006844281120811628,23.070702802031835
456,4200.52,226.8,99.9,735,45.63,1,Apollo,1000,4.0,2500,4201.07,213.1,1.0,0.5499999999992724,0.0024250440917075503,8.262610229265967
457,4201.07,213.1,99.0,620,45.63,1,Apollo,1000,4.0,2500,4202.57,217.3,1.0,1.5,0.0070389488503050214,23.597372125762554
458,4202.57,217.3,98.2,757,46.04,1,Apollo,1000,4.0,2500,4203.06,215.3,1.0,0.4900000000006912,0.0022549470777758454,7.5973676944423785
459,4203.06,215.3,99.5,686,44.4,1,Apollo,1000,4.0,2500,4204.55,221.3,1.0,1.4899999999997817,0.006920575940547058,23.26143985136677
460,4204.55,221.3,98.3,630,45.06,1,Apollo,1000,4.0,2500,4205.04,213.4,1.0,0.4899999999997817,0.002214188883867066,7.495472209666792
461,4205.04,213.4,99.5,660,43.76,1,Apollo,1000,4.0,2500,4206.65,220.5,1.0,1.6099999999996726,0.007544517338330238,25.301293345824284
462,4206.65,220.5,99.1,711,45.05,1,Apollo,1000,4.0,2500,4207.17,222.5,1.0,0.5200000000004366,0.0023582766439929096,7.97569160998402
463,4207.17,222.5,99.3,687,43.5,1,Apollo,1000,4.0,2500,4208.56,232.7,1.0,1.3900000000003274,0.006247191011237427,21.17797752809488
464,4208.56,232.7,97.8,751,45.91,1,Apollo,1000,4.0,2500,4210.12,224.8,1.0,1.5599999999994907,0.00670391061452295,22.999776536305337
465,4210.12,224.8,97.2,696,45.48,1,Apollo,1000,4.0,2500,4211.03,226.2,1.0,0.9099999999998545,0.004048042704625687,13.760106761563636
466,4211.03,226.2,98.3,728,43.93,1,Apollo,1000,4.0,2500,4212.55,233.7,1.0,1.5200000000004366,0.006719717064546581,22.879292661368197
467,4212.55,233.7,97.7,740,45.37,1,Apollo,1000,4.0,2500,4213.07,250.4,1.0,0.5199999999995271,0.002225074882325747,7.642687205812475
468,4213.07,250.4,99.1,716,45.01,1,Apollo,1000,4.0,2500,4214.55,223.5,1.0,1.480000000000473,0.005910543130992304,20.69635782748265
469,4214.55,223.5,96.9,671,44.89,1,Apollo,1000,4.0,2500,4215.09,222.8,1.0,0.5399999999999636,0.0024161073825501728,8.200268456375287
470,4215.09,222.8,98.8,652,45.86,1,Apollo,1000,4.0,2500,4216.59,219.5,1.0,1.5,0.006732495511669659,22.831238779174146
471,4216.59,219.5,96.8,692,45.59,1,Apollo,1000,4.0,2500,4217.06,212.4,1.0,0.47000000000025466,0.00214123006833829,7.233075170846743
472,4217.06,212.4,97.4,763,45.35,1,Apollo,1000,4.0,2500,4218.03,240.5,1.0,0.9699999999993452,0.004566854990580721,15.297137476449183
473,4218.03,240.5,124.7,542,18.71,1,Apollo,1000,4.0,2500,4220.71,241.7,1.0,2.680000000000291,0.011143451143452353,38.578627858632046
474,4220.71,241.7,127.9,427,13.99,1,Apollo,1000,4.0,2500,4221.05,239.8,1.0,0.3400000000001455,0.0014067025237904241,4.876756309476642
475,4221.05,239.8,129.6,463,13.88,1,Apollo,1000,4.0,2500,4222.5,272.5,1.0,1.449999999999818,0.006046705587989233,20.916763969972354
476,4222.5,272.5,125.9,522,17.96,1,Apollo,1000,4.0,2500,4223.15,347.0,1.0,0.6499999999996362,0.002385321100916096,8.563302752288784
477,4223.15,347.0,120.4,607,23.79,1,Apollo,1000,4.0,2500,4224.53,342.3,1.0,1.3800000000001091,0.003976945244957087,15.462363112393152
478,4224.53,342.3,102.3,669,43.28,1,Apollo,1000,4.0,2500,4225.11,251.3,1.0,0.5799999999999272,0.0016944200993278622,6.556050248319364
479,4225.11,251.3,98.4,706,41.89,1,Apollo,1000,4.0,2500,4226.29,283.2,1.0,1.180000000000291,0.004695582968564628,16.458957421412734
480,4226.29,283.2,107.5,800,32.91,1,Apollo,1000,4.0,2500,4227.08,540.5,1.0,0.7899999999999636,0.0027895480225987417,10.133870056496708
481,4227.08,540.5,102.4,916,41.36,1,Apollo,1000,4.0,2500,4228.16,522.0,1.0,1.0799999999999272,0.001998149861239458,9.315374653098354
482,4228.16,522.0,97.1,965,45.33,1,Apollo,1000,4.0,2500,4229.0,427.1,1.0,0.8400000000001455,0.0016091954022991292,7.382988505748405
483,4229.0,427.1,101.1,1030,44.5,1,Apollo,1000,4.0,2500,4230.66,531.6,1.0,1.6599999999998545,0.0038866775930691978,16.35669398267241
484,4230.66,531.6,100.8,932,41.27,1,Apollo,1000,4.0,2500,4231.13,545.2,1.0,0.47000000000025466,0.0008841234010539027,4.090308502635775
485,4231.13,545.2,96.5,1060,45.96,1,Apollo,1000,4.0,2500,4232.28,538.1,1.0,1.1499999999996362,0.002109317681584072,9.873294203958725
486,4232.28,538.1,100.2,1029,45.14,1,Apollo,1000,4.0,2500,4234.62,495.8,1.0,2.3400000000001455,0.004348634082884492,20.231585207211815
487,4234.62,495.8,95.6,1042,44.16,1,Apollo,1000,4.0,2500,4236.57,498.1,1.0,1.949999999999818,0.0039330375151267,17.632593787816024
488,4236.57,498.1,96.7,972,42.96,1,Apollo,1000,4.0,2500,4237.28,501.8,1.0,0.7100000000000364,0.0014254165830155316,6.403541457538974
489,4237.28,501.8,98.2,956,46.42,1,Apollo,1000,4.0,2500,4238.68,526.8,1.0,1.4000000000005457,0.002789956157832893,12.574890394584415
490,4238.68,526.8,98.5,1023,44.06,1,Apollo,1000,4.0,2500,4240.63,523.6,1.0,1.949999999999818,0.003701594533029268,17.053986332572443
491,4240.63,523.6,98.1,971,42.32,1,Apollo,1000,4.0,2500,4241.1,535.7,1.0,0.47000000000025466,0.0008976317799852074,4.124079449964038
492,4241.1,535.7,99.2,1051,42.17,1,Apollo,1000,4.0,2500,4242.74,486.9,1.0,1.639999999999418,0.0030614149710648086,14.213537427659693
493,4242.74,486.9,95.5,1022,45.66,1,Apollo,1000,4.0,2500,4244.3,540.6,1.0,1.5600000000004002,0.003203943314849867,14.249858287126267
494,4244.3,540.6,99.0,980,44.19,1,Apollo,1000,4.0,2500,4246.68,522.7,1.0,2.380000000000109,0.004402515723270642,20.52628930817704
495,4246.68,522.7,94.9,997,45.93,1,Apollo,1000,4.0,2500,4247.16,522.3,1.0,0.47999999999956344,0.0009183087813268861,4.215771953315469
496,4247.16,522.3,94.7,1003,44.96,1,Apollo,1000,4.0,2500,4248.7,539.9,1.0,1.5399999999999636,0.0029484970323568134,13.531242580891888
497,4248.7,539.9,96.2,954,44.19,1,Apollo,1000,4.0,2500,4249.12,494.9,1.0,0.42000000000007276,0.0007779218373774268,3.624804593443858
498,4249.12,494.9,99.3,979,44.03,1,Apollo,1000,4.0,2500,4250.74,249.3,1.0,1.6199999999998909,0.00327338856334591,14.66347140836434
499,4250.74,249.3,135.8,116,10.1,1,Apollo,1000,4.0,2500,4251.17,362.6,1.0,0.43000000000029104,0.0017248295226646251,6.032073806662727
500,4251.17,362.6,123.7,325,23.73,1,Apollo,1000,4.0,2500,4252.6,309.0,1.0,1.430000000000291,0.003943739658026174,15.5793491450666
501,4252.6,309.0,113.6,641,35.99,1,Apollo,1000,4.0,2500,4254.61,521.8,1.0,2.009999999999309,0.0065048543689298025,24.302135922321742
502,4254.61,521.8,108.4,766,40.95,1,Apollo,1000,4.0,2500,4255.03,496.7,1.0,0.42000000000007276,0.0008049060942891392,3.692265235723139
503,4255.03,496.7,106.2,940,41.7,1,Apollo,1000,4.0,2500,4256.7,526.7,1.0,1.6700000000000728,0.003362190457016454,15.085476142541426
504,4256.7,526.7,107.6,868,42.08,1,Apollo,1000,4.0,2500,4258.69,472.2,1.0,1.9899999999997817,0.0037782418834246853,17.40560470856084
505,4258.69,472.2,103.3,974,46.97,1,Apollo,1000,4.0,2500,4259.1,427.3,1.0,0.410000000000764,0.000868276154173579,3.8106903854370033
506,4259.1,427.3,102.4,711,45.03,1,Apollo,1000,4.0,2500,4260.61,248.2,1.0,1.5099999999993088,0.0035338169904032503,14.874542476005361
507,4260.61,248.2,108.1,1044,40.49,1,Apollo,1000,4.0,2500,4261.2,341.4,1.0,0.5900000000001455,0.0023771152296540917,8.302788074135812
508,4261.2,341.4,104.1,698,43.7,1,Apollo,1000,4.0,2500,4262.61,405.0,1.0,1.4099999999998545,0.004130052724076902,15.965131810191673
509,4262.61,405.0,105.5,916,42.05,1,Apollo,1000,4.0,2500,4263.04,399.6,1.0,0.43000000000029104,0.001061728395062447,4.374320987657281
510,4263.04,399.6,108.0,826,40.64,1,Apollo,1000,4.0,2500,4264.85,487.8,1.0,1.8100000000004002,0.0045295295295305306,18.563823823827928
511,4264.85,487.8,106.6,929,43.78,1,Apollo,1000,4.0,2500,4265.11,502.7,1.0,0.2599999999993088,0.0005330053300518835,2.3725133251269437
512,4265.11,502.7,106.6,940,41.64,1,Apollo,1000,4.0,2500,4266.24,497.5,1.0,1.1300000000001091,0.0022478615476429465,10.139653869107804
513,4266.24,497.5,107.5,1027,41.46,1,Apollo,1000,4.0,2500,4267.07,480.1,1.0,0.8299999999999272,0.0016683417085425671,7.490854271356127
514,4267.07,480.1,104.5,851,43.5,1,Apollo,1000,4.0,2500,4268.6,342.8,1.0,1.5300000000006548,0.0031868360758189017,14.087090189549873
515,4268.6,342.8,98.9,827,49.13,1,Apollo,1000,4.0,2500,4270.2,411.5,1.0,1.5999999999994543,0.004667444574094091,18.068611435233045
516,4270.2,411.5,142.0,212,6.55,1,Apollo,1000,4.0,2500,4271.0,31.2,1.0,0.8000000000001819,0.0019441069258813656,8.060267314704141
517,4271.0,31.2,142.4,113,4.52,1,Apollo,1000,4.0,2500,4272.52,48.4,1.0,1.5200000000004366,0.048717948717962714,127.87487179490853
518,4272.52,48.4,140.0,172,7.88,1,Apollo,1000,4.0,2500,4273.0,49.2,1.0,0.47999999999956344,0.009917355371891808,26.713388429727775
519,4273.0,49.2,141.2,196,6.32,1,Apollo,1000,4.0,2500,4274.0,66.4,1.0,1.0,0.02032520325203252,54.8130081300813
520,4274.0,66.4,138.8,267,9.92,1,Apollo,1000,4.0,2500,4275.0,69.1,1.0,1.0,0.01506024096385542,41.65060240963855
521,4275.0,69.1,139.1,131,8.0,1,Apollo,1000,4.0,2500,4276.52,68.6,1.0,1.5200000000004366,0.02199710564400053,61.07276411000307
522,4276.52,68.6,138.3,138,9.71,1,Apollo,1000,4.0,2500,4278.52,70.1,1.0,2.0,0.02915451895043732,80.8862973760933
523,4278.52,70.1,138.8,243,8.74,1,Apollo,1000,4.0,2500,4280.06,77.6,1.0,1.5399999999999636,0.02196861626248165,61.081540656203984
524,4280.06,77.6,138.2,233,8.52,1,Apollo,1000,4.0,2500,4281.03,85.0,1.0,0.9699999999993452,0.012499999999991563,35.12999999997629
525,4281.03,85.0,138.6,185,9.15,1,Apollo,1000,4.0,2500,4282.52,82.6,1.0,1.4900000000006912,0.017529411764714013,49.7835294117878
526,4282.52,82.6,138.9,241,8.83,1,Apollo,1000,4.0,2500,4283.0,87.0,1.0,0.47999999999956344,0.00581113801452256,16.447845036304653
527,4283.0,87.0,138.5,222,8.73,1,Apollo,1000,4.0,2500,4284.51,87.8,1.0,1.5100000000002183,0.01735632183908297,49.4308045977083
528,4284.51,87.8,137.8,161,10.43,1,Apollo,1000,4.0,2500,4286.53,85.4,1.0,2.019999999999527,0.02300683371297867,65.59708428244478
529,4286.53,85.4,135.7,147,11.06,1,Apollo,1000,4.0,2500,4287.06,86.2,1.0,0.5300000000006548,0.006206088992981906,17.635222482457387
530,4287.06,86.2,136.4,215,10.35,1,Apollo,1000,4.0,2500,4288.51,87.2,1.0,1.449999999999818,0.016821345707654502,47.853364269135525
531,4288.51,87.2,136.7,192,9.95,1,Apollo,1000,4.0,2500,4289.0,88.1,1.0,0.4899999999997817,0.005619266055043369,16.00816513760755
532,4289.0,88.1,136.7,189,9.79,1,Apollo,1000,4.0,2500,4290.53,89.5,1.0,1.5299999999997453,0.017366628830871117,49.53657207717677
533,4290.53,89.5,136.3,202,9.57,1,Apollo,1000,4.0,2500,4291.03,89.7,1.0,0.5,0.00558659217877095,15.966480446927374
534,4291.03,89.7,135.0,286,11.64,1,Apollo,1000,4.0,2500,4292.51,37.5,1.0,1.480000000000473,0.01649944258640438,47.16860646601284
535,4292.51,37.5,133.8,214,14.24,1,Apollo,1000,4.0,2500,4293.02,67.8,1.0,0.5100000000002183,0.013600000000005821,36.040000000015425
536,4293.02,67.8,133.7,160,13.18,1,Apollo,1000,4.0,2500,4294.51,76.1,1.0,1.4899999999997817,0.021976401179937783,60.90100294984359
537,4294.51,76.1,133.7,294,11.94,1,Apollo,1000,4.0,2500,4295.03,81.1,1.0,0.5199999999995271,0.006833114323252656,19.162785808129748
538,4295.03,81.1,137.3,295,9.17,1,Apollo,1000,4.0,2500,4296.04,99.9,1.0,1.0100000000002183,0.012453760789151891,35.1744019728806
539,4296.04,99.9,132.2,335,13.83,1,Apollo,1000,4.0,2500,4297.23,334.6,1.0,1.1899999999995998,0.011911911911907906,34.53977977976817
540,4297.23,334.6,115.2,528,23.08,1,Apollo,1000,4.0,2500,4298.71,542.1,1.0,1.480000000000473,0.0044231918708920286,16.977979677231964
541,4298.71,542.1,106.3,954,38.46,1,Apollo,1000,4.0,2500,4299.16,540.2,1.0,0.4499999999998181,0.0008301051466515736,3.8752628666282063
542,4299.16,540.2,107.9,872,38.22,1,Apollo,1000,4.0,2500,4300.62,509.5,1.0,1.4600000000000364,0.00270270270270277,12.59675675675707
543,4300.62,509.5,102.5,876,41.01,1,Apollo,1000,4.0,2500,4301.1,489.4,1.0,0.48000000000047294,0.000942100098136355,4.275250245342779
544,4301.1,489.4,102.5,958,43.25,1,Apollo,1000,4.0,2500,4301.55,510.8,1.0,0.4499999999998181,0.0009194932570490766,4.098733142621964
545,4301.55,510.8,103.7,865,41.76,1,Apollo,1000,4.0,2500,4303.15,510.0,1.0,1.5999999999994543,0.00313234142521428,14.230853563033516
546,4303.15,510.0,105.0,1012,42.53,1,Apollo,1000,4.0,2500,4304.61,528.9,1.0,1.4600000000000364,0.0028627450980392866,12.996862745098362
547,4304.61,528.9,101.4,932,43.4,1,Apollo,1000,4.0,2500,4305.06,514.8,1.0,0.4500000000007276,0.000850822461714365,3.927056154288823
548,4305.06,514.8,103.0,915,43.3,1,Apollo,1000,4.0,2500,4306.07,578.7,1.0,1.0099999999993088,0.001961926961925619,8.944817404811282
549,4306.07,578.7,103.2,912,44.48,1,Apollo,1000,4.0,2500,4306.77,504.4,1.0,0.7000000000007276,0.001209607741490803,5.824019353729918
550,4306.77,504.4,99.3,911,45.53,1,Apollo,1000,4.0,2500,4308.63,535.1,1.0,1.8599999999996726,0.0036875495638375743,16.65887390959263
551,4308.63,535.1,100.6,939,45.12,1,Apollo,1000,4.0,2500,4309.1,558.7,1.0,0.47000000000025466,0.000878340497103821,4.075851242760571
552,4309.1,558.7,102.3,995,46.2,1,Apollo,1000,4.0,2500,4310.77,557.1,1.0,1.6700000000000728,0.002989081797028947,14.152704492572658
553,4310.77,557.1,101.9,1010,42.52,1,Apollo,1000,4.0,2500,4311.23,547.5,1.0,0.4599999999991269,0.0008257045413734102,3.904261353430033
554,4311.23,547.5,100.8,989,45.33,1,Apollo,1000,4.0,2500,4312.6,435.0,1.0,1.3700000000008004,0.0025022831050242928,11.735707762563933
555,4312.6,435.0,94.8,797,50.21,1,Apollo,1000,4.0,2500,4313.04,290.8,1.0,0.4399999999995998,0.0010114942528726433,4.288735632180007
556,4313.04,290.8,96.4,908,49.49,1,Apollo,1000,4.0,2500,4314.04,246.1,1.0,1.0,0.0034387895460797797,12.59697386519945
557,4314.04,246.1,98.0,766,47.79,1,Apollo,1000,4.0,2500,4315.03,256.1,1.0,0.9899999999997817,0.004022754977650474,14.016887444125313
558,4315.03,256.1,99.2,784,45.85,1,Apollo,1000,4.0,2500,4316.51,467.0,1.0,1.480000000000473,0.005778992581024884,20.3674814525641
559,4316.51,467.0,110.3,756,34.04,1,Apollo,1000,4.0,2500,4317.18,532.6,1.0,0.6700000000000728,0.0014346895074948025,6.266723768737297
560,4317.18,532.6,102.1,975,43.99,1,Apollo,1000,4.0,2500,4318.5,427.4,1.0,1.319999999999709,0.0024784078107392207,11.476019526846887
561,4318.5,427.4,103.8,967,41.39,1,Apollo,1000,4.0,2500,4320.5,500.4,1.0,2.0,0.004679457182966776,19.69864295741694
562,4320.5,500.4,98.9,943,43.42,1,Apollo,1000,4.0,2500,4322.65,477.6,1.0,2.149999999999636,0.004296562749799433,19.341406874497125
563,4322.65,477.6,102.4,1033,46.27,1,Apollo,1000,4.0,2500,4324.54,498.9,1.0,1.8900000000003274,0.003957286432161489,17.45321608040503
564,4324.54,498.9,97.8,1029,45.06,1,Apollo,1000,4.0,2500,4325.18,506.3,1.0,0.6400000000003274,0.0012828222088601471,5.7670555221516775
565,4325.18,506.3,98.7,880,43.1,1,Apollo,1000,4.0,2500,4326.7,545.1,1.0,1.519999999999527,0.003002172624924999,13.585431562310607
566,4326.7,545.1,104.5,1031,41.13,1,Apollo,1000,4.0,2500,4327.18,532.1,1.0,0.48000000000047294,0.0008805723720426948,4.1214309301086285
567,4327.18,532.1,101.5,1035,46.85,1,Apollo,1000,4.0,2500,4328.71,448.6,1.0,1.5299999999997453,0.0028753993610218854,13.308498402553695
568,4328.71,448.6,99.2,975,43.99,1,Apollo,1000,4.0,2500,4329.0,505.5,1.0,0.2899999999999636,0.0006464556397680865,2.776139099420071
569,4329.0,505.5,99.6,937,43.99,1,Apollo,1000,4.0,2500,4330.14,508.0,1.0,1.1400000000003274,0.002255192878338927,10.197982195848628
570,4330.14,508.0,100.2,935,44.53,1,Apollo,1000,4.0,2500,4331.05,515.0,1.0,0.9099999999998545,0.001791338582676879,8.118346456691615
571,4331.05,515.0,99.6,964,45.18,1,Apollo,1000,4.0,2500,4332.65,528.8,1.0,1.5999999999994543,0.003106796116503795,14.166990291257305
572,4332.65,528.8,97.1,1034,43.82,1,Apollo,1000,4.0,2500,4333.14,544.6,1.0,0.4900000000006912,0.0009266263237531984,4.276565809385761
573,4333.14,544.6,100.4,956,42.29,1,Apollo,1000,4.0,2500,4334.51,475.8,1.0,1.3699999999998909,0.002515607785530464,11.769019463825725
574,4334.51,475.8,98.5,1036,45.26,1,Apollo,1000,4.0,2500,4335.21,511.2,1.0,0.6999999999998181,0.0014712063892387938,6.478015973096257
575,4335.21,511.2,100.4,966,44.55,1,Apollo,1000,4.0,2500,4336.58,524.6,1.0,1.3699999999998909,0.0026799687010952483,12.179921752737684
576,4336.58,524.6,98.6,968,44.75,1,Apollo,1000,4.0,2500,4338.52,549.2,1.0,1.9400000000005093,0.003698055661457318,17.00513915364533
577,4338.52,549.2,99.6,989,42.92,1,Apollo,1000,4.0,2500,4339.46,557.0,1.0,0.9399999999995998,0.00171158048069847,8.038951201744574
578,4339.46,557.0,97.9,1072,44.92,1,Apollo,1000,4.0,2500,4340.6,515.0,1.0,1.1400000000003274,0.002046678635548164,9.676696588871721
579,4340.6,515.0,98.2,1087,46.73,1,Apollo,1000,4.0,2500,4341.09,535.5,1.0,0.4899999999997817,0.0009514563106791878,4.338640776697096
580,4341.09,535.5,95.6,1021,44.83,1,Apollo,1000,4.0,2500,4342.63,490.5,1.0,1.5399999999999636,0.0028758169934639845,13.349542483659816
581,4342.63,490.5,100.3,972,43.23,1,Apollo,1000,4.0,2500,4343.09,496.6,1.0,0.4600000000000364,0.0009378185524975257,4.18454638124396
582,4343.09,496.6,97.0,1036,45.14,1,Apollo,1000,4.0,2500,4344.61,515.9,1.0,1.519999999999527,0.003060813532016768,13.732033830040029
583,4344.61,515.9,101.3,1066,45.93,1,Apollo,1000,4.0,2500,4345.05,489.4,1.0,0.4400000000005093,0.0008528784648197506,3.892196162051414
584,4345.05,489.4,99.7,1111,45.41,1,Apollo,1000,4.0,2500,4346.69,258.3,1.0,1.639999999999418,0.0033510420923568,14.937605230889671
585,4346.69,258.3,154.8,157,13.92,1,Apollo,1000,4.0,2500,4347.14,270.9,1.0,0.4500000000007276,0.0017421602787484614,6.1554006968740635
586,4347.14,270.9,137.5,389,29.1,1,Apollo,1000,4.0,2500,4348.53,317.5,1.0,1.389999999999418,0.005131044665926238,18.387611664813267
587,4348.53,317.5,121.4,725,31.49,1,Apollo,1000,4.0,2500,4349.14,441.4,1.0,0.6100000000005821,0.0019212598425215185,7.243149606306124
588,4349.14,441.4,119.2,683,34.79,1,Apollo,1000,4.0,2500,4350.6,493.3,1.0,1.4600000000000364,0.0033076574535569475,14.109143633892515
589,4350.6,493.3,113.3,848,40.88,1,Apollo,1000,4.0,2500,4351.02,459.1,1.0,0.42000000000007276,0.0008514088789784568,3.808522197446433
590,4351.02,459.1,112.8,927,44.69,1,Apollo,1000,4.0,2500,4352.72,494.4,1.0,1.699999999999818,0.0037028969723367847,16.057242430841235
591,4352.72,494.4,110.4,912,42.15,1,Apollo,1000,4.0,2500,4353.1,413.4,1.0,0.38000000000010914,0.0007686084142397029,3.4415210355996937
592,4353.1,413.4,108.0,877,43.98,1,Apollo,1000,4.0,2500,4354.84,525.2,1.0,1.7399999999997817,0.004208998548620662,17.48249637155078
593,4354.84,525.2,110.0,990,44.81,1,Apollo,1000,4.0,2500,4356.08,454.9,1.0,1.2399999999997817,0.0023610053313019453,10.86251332825399
594,4356.08,454.9,107.3,1003,44.06,1,Apollo,1000,4.0,2500,4357.13,470.2,1.0,1.050000000000182,0.0023081996043090394,9.970499010773327
595,4357.13,470.2,109.9,955,43.24,1,Apollo,1000,4.0,2500,4358.56,454.7,1.0,1.430000000000291,0.003041259038707552,13.323147596770045
596,4358.56,454.7,109.7,970,42.79,1,Apollo,1000,4.0,2500,4359.06,539.3,1.0,0.5,0.0010996261271167802,4.749065317791951
597,4359.06,539.3,108.7,1016,44.3,1,Apollo,1000,4.0,2500,4360.5,58.5,1.0,1.4399999999995998,0.0026701279436298904,12.435319859073125
598,4360.5,58.5,144.1,121,9.55,1,Apollo,1000,4.0,2500,4361.01,38.3,1.0,0.5100000000002183,0.008717948717952449,23.834871794881995
599,4361.01,38.3,141.8,132,9.59,1,Apollo,1000,4.0,2500,4362.52,62.8,1.0,1.5100000000002183,0.03942558746736863,104.60396866842244
600,4362.52,62.8,138.7,266,13.17,1,Apollo,1000,4.0,2500,4363.07,72.7,1.0,0.5499999999992724,0.008757961783427904,24.094904458566848
601,4363.07,72.7,139.3,186,13.56,1,Apollo,1000,4.0,2500,4364.52,68.1,1.0,1.4500000000007276,0.01994497936727273,55.66244841818474
602,4364.52,68.1,137.5,276,13.88,1,Apollo,1000,4.0,2500,4365.01,68.5,1.0,0.4899999999997817,0.007195301027896942,19.94825256974148
603,4365.01,68.5,137.8,272,14.07,1,Apollo,1000,4.0,2500,4366.53,72.1,1.0,1.519999999999527,0.022189781021890908,61.55445255472538
604,4366.53,72.1,139.4,162,13.95,1,Apollo,1000,4.0,2500,4368.5,73.9,1.0,1.9700000000002547,0.027323162274622118,76.18790568655632
605,4368.5,73.9,136.6,253,14.26,1,Apollo,1000,4.0,2500,4369.03,71.6,1.0,0.5299999999997453,0.007171853856559477,20.049634641397674
606,4369.03,71.6,139.0,153,13.74,1,Apollo,1000,4.0,2500,4370.03,76.4,1.0,1.0,0.013966480446927375,38.91620111731844
607,4370.03,76.4,137.9,255,13.69,1,Apollo,1000,4.0,2500,4371.01,76.3,1.0,0.9800000000004729,0.012827225130896243,35.9880628272425
608,4371.01,76.3,137.2,144,15.0,1,Apollo,1000,4.0,2500,4372.51,73.1,1.0,1.5,0.019659239842726082,55.14809960681521
609,4372.51,73.1,136.9,252,14.7,1,Apollo,1000,4.0,2500,4373.01,73.0,1.0,0.5,0.006839945280437757,19.099863201094394
610,4373.01,73.0,139.0,261,14.19,1,Apollo,1000,4.0,2500,4374.5,79.5,1.0,1.4899999999997817,0.0204109589041066,56.987397260265624
611,4374.5,79.5,138.5,169,13.13,1,Apollo,1000,4.0,2500,4375.01,78.8,1.0,0.5100000000002183,0.006415094339625387,18.077735849064343
612,4375.01,78.8,139.6,160,11.56,1,Apollo,1000,4.0,2500,4376.51,89.8,1.0,1.5,0.01903553299492386,53.588832487309645
613,4376.51,89.8,136.8,212,13.91,1,Apollo,1000,4.0,2500,4377.03,90.3,1.0,0.5199999999995271,0.005790645879727474,16.556614699316793
614,4377.03,90.3,138.8,164,12.95,1,Apollo,1000,4.0,2500,4378.5,92.0,1.0,1.4700000000002547,0.01627906976744468,46.57767441861272
615,4378.5,92.0,137.1,193,13.98,1,Apollo,1000,4.0,2500,4379.0,91.1,1.0,0.5,0.005434782608695652,15.58695652173913
616,4379.0,91.1,137.5,202,13.26,1,Apollo,1000,4.0,2500,4380.54,91.7,1.0,1.5399999999999636,0.016904500548847023,48.42125137211741
617,4380.54,91.7,137.8,179,13.26,1,Apollo,1000,4.0,2500,4381.01,91.4,1.0,0.47000000000025466,0.005125408942205613,14.69352235551505
618,4381.01,91.4,138.8,196,13.05,1,Apollo,1000,4.0,2500,4382.52,82.8,1.0,1.5100000000002183,0.016520787746173066,47.34196936543354
619,4382.52,82.8,136.5,179,13.31,1,Apollo,1000,4.0,2500,4383.02,88.9,1.0,0.5,0.006038647342995169,17.096618357487923
620,4383.02,88.9,137.6,261,13.1,1,Apollo,1000,4.0,2500,4384.0,76.1,1.0,0.9799999999995634,0.011023622047239183,31.479055118096213
621,4384.0,76.1,132.6,254,18.16,1,Apollo,1000,4.0,2500,4385.0,29.6,1.0,1.0,0.01314060446780552,36.8515111695138
622,4385.0,29.6,134.0,146,17.04,1,Apollo,1000,4.0,2500,4386.5,37.9,1.0,1.5,0.05067567567567567,132.68918918918916
623,4386.5,37.9,129.7,256,21.35,1,Apollo,1000,4.0,2500,4388.5,42.3,1.0,2.0,0.052770448548812667,139.92612137203167
624,4388.5,42.3,126.4,179,23.77,1,Apollo,1000,4.0,2500,4390.63,52.3,1.0,2.130000000000109,0.0503546099290806,134.40652482270195
625,4390.63,52.3,122.7,406,28.84,1,Apollo,1000,4.0,2500,4391.12,130.8,1.0,0.4899999999997817,0.009369024856592386,25.38256214148009
626,4391.12,130.8,121.8,457,28.69,1,Apollo,1000,4.0,2500,4392.5,258.1,1.0,1.3800000000001091,0.010550458715597164,31.896146788993345
627,4392.5,258.1,101.5,630,47.52,1,Apollo,1000,4.0,2500,4393.01,212.0,1.0,0.5100000000002183,0.0019759783029841852,6.979945757461336
628,4393.01,212.0,103.9,763,47.16,1,Apollo,1000,4.0,2500,4394.54,202.6,1.0,1.5299999999997453,0.00721698113207427,24.162452830184655
629,4394.54,202.6,102.6,635,45.8,1,Apollo,1000,4.0,2500,4395.01,213.8,1.0,0.47000000000025466,0.0023198420533082657,7.679605133271683
630,4395.01,213.8,105.4,606,45.65,1,Apollo,1000,4.0,2500,4396.51,205.4,1.0,1.5,0.007015902712815715,23.539756782039287
631,4396.51,205.4,104.4,647,44.24,1,Apollo,1000,4.0,2500,4397.0,204.2,1.0,0.4899999999997817,0.0023855890944487913,7.923972736121105
632,4397.0,204.2,105.4,702,43.71,1,Apollo,1000,4.0,2500,4398.58,207.3,1.0,1.5799999999999272,0.007737512242898762,25.663780607246615
633,4398.58,207.3,104.3,653,44.64,1,Apollo,1000,4.0,2500,4399.06,213.0,1.0,0.48000000000047294,0.0023154848046332507,7.7087120115850185
634,4399.06,213.0,105.4,648,45.28,1,Apollo,1000,4.0,2500,4400.02,204.1,1.0,0.9600000000000364,0.004507042253521298,15.10760563380339
635,4400.02,204.1,105.0,645,45.94,1,Apollo,1000,4.0,2500,4401.07,213.6,1.0,1.0499999999992724,0.005144536991667185,17.061342479165052
636,4401.07,213.6,105.2,692,45.08,1,Apollo,1000,4.0,2500,4402.5,210.0,1.0,1.430000000000291,0.006694756554308478,22.45689138577236
637,4402.5,210.0,106.4,744,45.81,1,Apollo,1000,4.0,2500,4403.08,223.5,1.0,0.5799999999999272,0.0027619047619044153,9.224761904760747
638,4403.08,223.5,105.8,642,45.23,1,Apollo,1000,4.0,2500,4404.5,209.7,1.0,1.4200000000000728,0.006353467561521578,21.563668903804235
639,4404.5,209.7,105.0,712,44.97,1,Apollo,1000,4.0,2500,4405.07,212.2,1.0,0.569999999999709,0.002718168812588026,9.0754220314689
640,4405.07,212.2,104.6,668,44.95,1,Apollo,1000,4.0,2500,4406.05,208.1,1.0,0.9800000000004729,0.0046182846371370075,15.46571159284441
641,4406.05,208.1,104.1,629,45.28,1,Apollo,1000,4.0,2500,4407.07,203.2,1.0,1.019999999999527,0.004901489668426367,16.333724171064027
642,4407.07,203.2,104.4,736,46.4,1,Apollo,1000,4.0,2500,4408.51,218.0,1.0,1.4400000000005093,0.007086614173230853,23.47653543307917
643,4408.51,218.0,103.5,710,45.71,1,Apollo,1000,4.0,2500,4409.08,210.0,1.0,0.569999999999709,0.002614678899081234,8.81669724770192
644,4409.08,210.0,105.8,665,44.81,1,Apollo,1000,4.0,2500,4410.63,223.0,1.0,1.550000000000182,0.007380952380953247,24.652380952383844
645,4410.63,223.0,104.7,676,44.14,1,Apollo,1000,4.0,2500,4411.12,227.2,1.0,0.4899999999997817,0.0021973094170393797,7.453273542597576
646,4411.12,227.2,104.0,778,44.68,1,Apollo,1000,4.0,2500,4412.52,212.3,1.0,1.4000000000005457,0.006161971830988318,21.00492957747298
647,4412.52,212.3,102.9,741,45.69,1,Apollo,1000,4.0,2500,4413.09,206.2,1.0,0.569999999999709,0.0026848798869510545,8.992199717376472
648,4413.09,206.2,104.8,700,45.71,1,Apollo,1000,4.0,2500,4414.51,209.4,1.0,1.4200000000000728,0.006886517943744292,22.89629485936102
649,4414.51,209.4,103.8,663,44.21,1,Apollo,1000,4.0,2500,4415.15,205.3,1.0,0.6399999999994179,0.0030563514804174685,10.200878701041344
650,4415.15,205.3,102.2,667,44.91,1,Apollo,1000,4.0,2500,4416.63,210.8,1.0,1.480000000000473,0.007208962493913653,23.942406234786024
651,4416.63,210.8,104.6,670,44.17,1,Apollo,1000,4.0,2500,4417.02,211.7,1.0,0.3900000000003274,0.0018500948766618948,6.1852371916560465
652,4417.02,211.7,105.8,698,45.48,1,Apollo,1000,4.0,2500,4418.51,212.7,1.0,1.4899999999997817,0.0070382616910712415,23.55565422767723
653,4418.51,212.7,102.9,754,46.72,1,Apollo,1000,4.0,2500,4420.55,192.7,1.0,2.0399999999999636,0.009590973201692355,32.13743300423074
654,4420.55,192.7,103.4,612,43.53,1,Apollo,1000,4.0,2500,4422.58,212.2,1.0,2.0299999999997453,0.010534509600413832,34.45627400103356
655,4422.58,212.2,101.8,661,44.8,1,Apollo,1000,4.0,2500,4424.66,199.6,1.0,2.0799999999999272,0.009802073515551025,32.82518378887727
656,4424.66,199.6,103.5,665,44.94,1,Apollo,1000,4.0,2500,4425.14,218.2,1.0,0.48000000000047294,0.0024048096192408465,7.932024048104008
657,4425.14,218.2,103.6,692,43.46,1,Apollo,1000,4.0,2500,4426.5,211.5,1.0,1.3599999999996726,0.006232813932170818,21.02203483042574
658,4426.5,211.5,104.1,698,44.85,1,Apollo,1000,4.0,2500,4427.09,220.0,1.0,0.5900000000001455,0.002789598108747733,9.333995271869915
659,4427.09,220.0,103.9,711,44.39,1,Apollo,1000,4.0,2500,4428.62,210.0,1.0,1.5299999999997453,0.006954545454544297,23.506363636359723
660,4428.62,210.0,105.5,735,44.57,1,Apollo,1000,4.0,2500,4429.01,216.0,1.0,0.3900000000003274,0.0018571428571444162,6.20285714286235
661,4429.01,216.0,103.2,694,44.78,1,Apollo,1000,4.0,2500,4430.56,208.0,1.0,1.550000000000182,0.007175925925926768,24.139814814817647
662,4430.56,208.0,99.9,678,45.4,1,Apollo,1000,4.0,2500,4431.17,214.5,1.0,0.6099999999996726,0.0029326923076907338,9.771730769225524
663,4431.17,214.5,104.6,739,44.94,1,Apollo,1000,4.0,2500,4432.07,224.7,1.0,0.8999999999996362,0.0041958041958025,14.089510489504795
664,4432.07,224.7,102.7,711,44.52,1,Apollo,1000,4.0,2500,4433.04,211.2,1.0,0.9700000000002547,0.004316866933690497,14.672167334227261
665,4433.04,211.2,103.6,787,44.58,1,Apollo,1000,4.0,2500,4434.54,216.8,1.0,1.5,0.007102272727272728,23.75568181818182
666,4434.54,216.8,103.3,775,44.79,1,Apollo,1000,4.0,2500,4435.07,196.9,1.0,0.5299999999997453,0.00244464944649329,8.231623616232206
667,4435.07,196.9,103.0,797,44.9,1,Apollo,1000,4.0,2500,4436.56,241.2,1.0,1.4900000000006912,0.0075672930421568875,24.878232605394984
668,4436.56,241.2,102.3,738,45.4,1,Apollo,1000,4.0,2500,4438.57,208.0,1.0,2.009999999999309,0.00833333333333047,28.87333333332341
669,4438.57,208.0,103.5,786,45.55,1,Apollo,1000,4.0,2500,4439.06,214.5,1.0,0.4900000000006912,0.002355769230772554,7.8494230769341495
670,4439.06,214.5,99.5,722,46.44,1,Apollo,1000,4.0,2500,4440.69,208.6,1.0,1.6299999999991996,0.007599067599063867,25.517668997656468
671,4440.69,208.6,102.2,676,43.72,1,Apollo,1000,4.0,2500,4442.5,234.1,1.0,1.8100000000004002,0.008676893576224354,28.932233940562487
672,4442.5,234.1,121.9,460,29.47,1,Apollo,1000,4.0,2500,4443.05,243.8,1.0,0.5500000000001819,0.00234942332336686,8.073558308417876
673,4443.05,243.8,113.3,708,37.41,1,Apollo,1000,4.0,2500,4444.01,240.3,1.0,0.9600000000000364,0.0039376538146022825,13.684134536505852
674,4444.01,240.3,107.9,719,41.97,1,Apollo,1000,4.0,2500,4445.03,224.6,1.0,1.019999999999527,0.004244694132332613,14.69173533082964
675,4445.03,224.6,107.9,727,44.24,1,Apollo,1000,4.0,2500,4446.54,218.1,1.0,1.5100000000002183,0.006723063223509432,22.847658058774453
676,4446.54,218.1,105.5,812,44.52,1,Apollo,1000,4.0,2500,4447.0,211.9,1.0,0.4600000000000364,0.0021091242549290986,7.112810637322892
677,4447.0,211.9,106.0,715,44.73,1,Apollo,1000,4.0,2500,4447.59,212.2,1.0,0.5900000000001455,0.0027843322321856796,9.320830580464781
678,4447.59,212.2,106.4,742,43.94,1,Apollo,1000,4.0,2500,4449.01,208.4,1.0,1.4200000000000728,0.006691800188501757,22.409500471254685
679,4449.01,208.4,105.9,744,45.77,1,Apollo,1000,4.0,2500,4450.52,210.8,1.0,1.5100000000002183,0.007245681381958821,24.154203454897925
680,4450.52,210.8,105.1,750,45.79,1,Apollo,1000,4.0,2500,4451.06,211.3,1.0,0.5399999999999636,0.0025616698292218387,8.564174573054451
681,4451.06,211.3,106.2,698,43.58,1,Apollo,1000,4.0,2500,4452.53,195.8,1.0,1.4699999999993452,0.006956933270228799,23.27233317556938
682,4452.53,195.8,106.4,657,45.21,1,Apollo,1000,4.0,2500,4453.09,192.3,1.0,0.5600000000004002,0.002860061287029623,9.390153217575659
683,4453.09,192.3,105.8,746,44.32,1,Apollo,1000,4.0,2500,4454.57,215.0,1.0,1.4799999999995634,0.007696307852311822,25.16076963077781
684,4454.57,215.0,105.0,800,45.13,1,Apollo,1000,4.0,2500,4455.03,205.4,1.0,0.4600000000000364,0.0021395348837210996,7.1888372093028945
685,4455.03,205.4,104.4,777,45.03,1,Apollo,1000,4.0,2500,4456.02,214.0,1.0,0.9900000000006912,0.004819863680626539,16.009659201569114
686,4456.02,214.0,104.4,705,46.43,1,Apollo,1000,4.0,2500,4457.11,207.6,1.0,1.089999999999236,0.005093457943921663,17.093644859801103
687,4457.11,207.6,104.5,689,44.7,1,Apollo,1000,4.0,2500,4458.5,203.6,1.0,1.3900000000003274,0.00669556840077229,22.298921001932037
688,4458.5,203.6,105.4,793,45.3,1,Apollo,1000,4.0,2500,4460.56,205.8,1.0,2.0600000000004,0.010117878192536347,33.53469548134247
689,4460.56,205.8,104.1,706,45.6,1,Apollo,1000,4.0,2500,4461.05,212.6,1.0,0.4899999999997817,0.00238095238095132,7.9123809523774264
690,4461.05,212.6,104.8,723,44.61,1,Apollo,1000,4.0,2500,4462.51,215.0,1.0,1.4600000000000364,0.006867356538099889,23.00839134524987
691,4462.51,215.0,104.4,713,45.51,1,Apollo,1000,4.0,2500,4463.1,224.9,1.0,0.5900000000001455,0.002744186046512305,9.220465116281344
692,4463.1,224.9,102.4,761,43.91,1,Apollo,1000,4.0,2500,4464.05,209.3,1.0,0.9499999999998181,0.004224099599821334,14.360248999552608
693,4464.05,209.3,104.3,822,45.04,1,Apollo,1000,4.0,2500,4465.1,213.3,1.0,1.050000000000182,0.005016722408027625,16.741806020069788
694,4465.1,213.3,105.0,719,44.07,1,Apollo,1000,4.0,2500,4466.53,197.4,1.0,1.4299999999993815,0.006704172526954437,22.48043131738362
695,4466.53,197.4,106.0,760,43.87,1,Apollo,1000,4.0,2500,4467.12,201.3,1.0,0.5900000000001455,0.0029888551165154283,9.832137791289153
696,4467.12,201.3,106.0,747,45.51,1,Apollo,1000,4.0,2500,4470.51,205.3,1.0,3.3900000000003274,0.016840536512669285,55.661341281674524
697,4470.51,205.3,104.6,689,45.84,1,Apollo,1000,4.0,2500,4473.19,206.9,1.0,2.6799999999993815,0.013054067218701323,43.35516804675083
698,4473.19,206.9,103.9,724,46.01,1,Apollo,1000,4.0,2500,4474.58,227.7,1.0,1.3900000000003274,0.0067182213629788665,22.355553407448475
699,4474.58,227.7,104.0,705,45.46,1,Apollo,1000,4.0,2500,4475.05,228.7,1.0,0.47000000000025466,0.002064119455424922,7.040298638563323
700,4475.05,228.7,104.4,716,44.78,1,Apollo,1000,4.0,2500,4476.52,216.6,1.0,1.4700000000002547,0.006427634455619828,21.94908613905059
701,4476.52,216.6,104.0,617,44.56,1,Apollo,1000,4.0,2500,4477.01,217.6,1.0,0.4899999999997817,0.0022622345337016702,7.615586334253303
702,4477.01,217.6,104.0,630,44.86,1,Apollo,1000,4.0,2500,4478.54,215.5,1.0,1.5299999999997453,0.007031249999998829,23.698124999996054
703,4478.54,215.5,103.9,663,44.63,1,Apollo,1000,4.0,2500,4479.02,213.0,1.0,0.48000000000047294,0.002227378190257415,7.48844547564543
704,4479.02,213.0,103.5,631,45.01,1,Apollo,1000,4.0,2500,4480.57,220.9,1.0,1.5499999999992724,0.007276995305160903,24.39248826289935
705,4480.57,220.9,103.2,630,45.16,1,Apollo,1000,4.0,2500,4482.6,218.2,1.0,2.030000000000655,0.009189678587599162,31.094196469000522
706,4482.6,218.2,104.4,625,44.66,1,Apollo,1000,4.0,2500,4483.07,209.8,1.0,0.46999999999934516,0.002153987167733021,7.2649679193299335
707,4483.07,209.8,101.4,590,46.69,1,Apollo,1000,4.0,2500,4484.05,190.4,1.0,0.9800000000004729,0.004671115347952683,15.597788369883599
708,4484.05,190.4,104.8,580,45.23,1,Apollo,1000,4.0,2500,4485.04,220.7,1.0,0.9899999999997817,0.005199579831931626,16.958949579828193
709,4485.04,220.7,105.3,561,43.42,1,Apollo,1000,4.0,2500,4486.67,241.1,1.0,1.6300000000001091,0.007385591300408288,24.983978251021156
710,4486.67,241.1,131.4,527,16.01,1,Apollo,1000,4.0,2500,4487.01,252.7,1.0,0.3400000000001455,0.0014102032351727314,4.88550808793241
711,4487.01,252.7,132.3,352,15.28,1,Apollo,1000,4.0,2500,4488.5,247.0,1.0,1.4899999999997817,0.005896319746734395,20.700799366835113
712,4488.5,247.0,133.4,435,15.32,1,Apollo,1000,4.0,2500,4489.06,249.3,1.0,0.5600000000004002,0.002267206477734414,7.908016194337636
713,4489.06,249.3,132.2,392,14.39,1,Apollo,1000,4.0,2500,4490.6,333.4,1.0,1.5399999999999636,0.006177296430003865,21.603241075009514
714,4490.6,333.4,126.1,569,20.22,1,Apollo,1000,4.0,2500,4491.16,387.7,1.0,0.5599999999994907,0.0016796640671850353,6.439160167960551
715,4491.16,387.7,123.4,643,24.45,1,Apollo,1000,4.0,2500,4492.67,483.1,1.0,1.5100000000002183,0.0038947639927784843,15.776909981947083
716,4492.67,483.1,115.7,765,31.39,1,Apollo,1000,4.0,2500,4494.68,493.0,1.0,2.0100000000002183,0.004160629269302873,18.441573173258057
717,4494.68,493.0,107.5,884,38.36,1,Apollo,1000,4.0,2500,4495.11,498.6,1.0,0.42999999999938154,0.0008722109533456015,3.90052738336153
718,4495.11,498.6,111.9,931,38.77,1,Apollo,1000,4.0,2500,4496.0,494.9,1.0,0.8900000000003274,0.0017849979943849327,8.022494985963641
719,4496.0,494.9,107.8,910,38.39,1,Apollo,1000,4.0,2500,4497.15,512.5,1.0,1.1499999999996362,0.00232370175793016,10.409254394823945
720,4497.15,512.5,108.3,883,39.46,1,Apollo,1000,4.0,2500,4498.5,526.9,1.0,1.3500000000003638,0.0026341463414641247,11.985365853661767
721,4498.5,526.9,107.0,997,41.95,1,Apollo,1000,4.0,2500,4499.19,492.5,1.0,0.6899999999995998,0.0013095464034913644,6.033866008726811
722,4499.19,492.5,108.4,936,41.08,1,Apollo,1000,4.0,2500,4500.62,533.0,1.0,1.430000000000291,0.0029035532994929765,12.978883248733606
723,4500.62,533.0,104.7,988,41.82,1,Apollo,1000,4.0,2500,4501.06,519.6,1.0,0.4400000000005093,0.0008255159474681225,3.8237898686723435
724,4501.06,519.6,106.3,899,48.59,1,Apollo,1000,4.0,2500,4502.58,490.7,1.0,1.519999999999527,0.0029253271747488973,13.393317936870352
725,4502.58,490.7,103.6,930,42.3,1,Apollo,1000,4.0,2500,4503.07,549.2,1.0,0.4899999999997817,0.0009985734664760173,4.45643366618917
726,4503.07,549.2,104.6,922,44.75,1,Apollo,1000,4.0,2500,4504.52,502.0,1.0,1.4500000000007276,0.00264020393299477,12.400509832489835
727,4504.52,502.0,103.2,901,43.59,1,Apollo,1000,4.0,2500,4505.27,508.7,1.0,0.75,0.00149402390438247,6.735059760956175
728,4505.27,508.7,103.4,1016,44.25,1,Apollo,1000,4.0,2500,4506.7,524.4,1.0,1.4299999999993815,0.002811087084724556,12.747717711808916
729,4506.7,524.4,102.4,1044,45.3,1,Apollo,1000,4.0,2500,4508.58,517.0,1.0,1.8800000000001091,0.00358504958047313,16.482623951183264
730,4508.58,517.0,104.1,1005,44.52,1,Apollo,1000,4.0,2500,4509.1,545.0,1.0,0.5200000000004366,0.0010058027079312118,4.594506769829776
731,4509.1,545.0,103.4,948,42.62,1,Apollo,1000,4.0,2500,4510.51,522.0,1.0,1.4099999999998545,0.0025871559633024854,12.107889908255633
732,4510.51,522.0,103.8,932,43.86,1,Apollo,1000,4.0,2500,4511.0,561.5,1.0,0.4899999999997817,0.0009386973180072447,4.306743295017238
733,4511.0,561.5,102.8,965,42.05,1,Apollo,1000,4.0,2500,4512.52,564.2,1.0,1.5200000000004366,0.0027070347284068328,12.847586821018828
734,4512.52,564.2,100.0,935,43.37,1,Apollo,1000,4.0,2500,4513.02,526.5,1.0,0.5,0.0008862105636299184,4.215526409074796
735,4513.02,526.5,103.5,1020,43.71,1,Apollo,1000,4.0,2500,4514.73,542.3,1.0,1.7099999999991269,0.0032478632478615895,14.95965811965048
736,4514.73,542.3,98.3,1046,44.28,1,Apollo,1000,4.0,2500,4515.0,581.4,1.0,0.27000000000043656,0.000497879402545522,2.324698506365551
737,4515.0,581.4,101.8,940,44.28,1,Apollo,1000,4.0,2500,4516.25,487.4,1.0,1.25,0.002149982800137599,10.374957000343997
738,4516.25,487.4,100.7,1013,45.84,1,Apollo,1000,4.0,2500,4517.04,570.8,1.0,0.7899999999999636,0.0016208453016002538,7.212113254000489
739,4517.04,570.8,104.8,990,42.15,1,Apollo,1000,4.0,2500,4518.53,542.1,1.0,1.4899999999997817,0.002610371408549022,12.485928521371683
740,4518.53,542.1,103.5,1024,42.85,1,Apollo,1000,4.0,2500,4519.06,629.5,1.0,0.5300000000006548,0.0009776793949467899,4.564198487369595
741,4519.06,629.5,101.0,952,44.53,1,Apollo,1000,4.0,2500,4520.55,580.1,1.0,1.4899999999997817,0.0023669579030973498,11.8773947577425
742,4520.55,580.1,101.6,1028,46.07,1,Apollo,1000,4.0,2500,4521.05,542.5,1.0,0.5,0.0008619203585588691,4.154800896397173
743,4521.05,542.5,100.6,1044,44.06,1,Apollo,1000,4.0,2500,4522.61,617.1,1.0,1.5599999999994907,0.002875576036865421,13.428940092161515
744,4522.61,617.1,101.2,996,45.2,1,Apollo,1000,4.0,2500,4523.1,627.6,1.0,0.4900000000006912,0.0007940366229147483,3.9450915572896355
745,4523.1,627.6,104.0,1005,42.49,1,Apollo,1000,4.0,2500,4524.56,625.6,1.0,1.4600000000000364,0.002326322498406686,11.655806246016862
746,4524.56,625.6,100.5,1018,44.52,1,Apollo,1000,4.0,2500,4525.07,532.0,1.0,0.5099999999993088,0.0008152173913032429,4.078043478255342
747,4525.07,532.0,101.6,960,43.95,1,Apollo,1000,4.0,2500,4526.29,578.6,1.0,1.2200000000002547,0.0022932330827072456,10.613082706769132
748,4526.29,578.6,101.6,991,44.73,1,Apollo,1000,4.0,2500,4528.62,545.6,1.0,2.3299999999999272,0.004026961631524243,19.387404078810317
749,4528.62,545.6,102.7,1085,45.97,1,Apollo,1000,4.0,2500,4529.12,582.2,1.0,0.5,0.0009164222873900293,4.291055718475073
750,4529.12,582.2,100.8,1095,44.57,1,Apollo,1000,4.0,2500,4530.39,552.5,1.0,1.2700000000004366,0.0021813809687400145,10.533452421851782
751,4530.39,552.5,101.1,1009,46.18,1,Apollo,1000,4.0,2500,4531.12,573.0,1.0,0.7299999999995634,0.0013212669683250018,6.223167420810759
752,4531.12,573.0,99.5,1024,45.83,1,Apollo,1000,4.0,2500,4532.11,593.3,1.0,0.9899999999997817,0.0017277486910990954,8.279371727746867
753,4532.11,593.3,100.1,1064,45.14,1,Apollo,1000,4.0,2500,4533.11,550.8,1.0,1.0,0.0016854879487611665,8.213719871902917
754,4533.11,550.8,102.2,995,43.77,1,Apollo,1000,4.0,2500,4534.64,558.2,1.0,1.5300000000006548,0.002777777777778967,13.064444444450036
755,4534.64,558.2,100.3,1062,44.02,1,Apollo,1000,4.0,2500,4536.61,566.4,1.0,1.9699999999993452,0.003529201003223477,16.703002508056073
756,4536.61,566.4,99.3,1044,45.23,1,Apollo,1000,4.0,2500,4538.16,371.6,1.0,1.550000000000182,0.002736581920904276,13.041454802261418
757,4538.16,371.6,127.3,631,16.33,1,Apollo,1000,4.0,2500,4538.77,733.5,1.0,0.6100000000005821,0.0016415500538228796,6.543875134559527
758,4538.77,733.5,116.4,868,21.29,1,Apollo,1000,4.0,2500,4540.27,643.1,1.0,1.5,0.002044989775051125,11.112474437627812
759,4540.27,643.1,101.6,1095,35.33,1,Apollo,1000,4.0,2500,4541.2,664.2,1.0,0.9299999999993815,0.0014461203545317704,7.335300886326952
760,4541.2,664.2,98.1,1077,40.82,1,Apollo,1000,4.0,2500,4542.64,527.5,1.0,1.4400000000005093,0.002168021680217569,11.18005420054596
761,4542.64,527.5,98.1,1072,40.21,1,Apollo,1000,4.0,2500,4543.1,520.3,1.0,0.4600000000000364,0.000872037914692012,4.0200947867301755
762,4543.1,520.3,99.2,1186,39.36,1,Apollo,1000,4.0,2500,4544.08,572.1,1.0,0.9799999999995634,0.0018835287334221862,8.628821833553719
763,4544.08,572.1,102.1,1105,36.82,1,Apollo,1000,4.0,2500,4545.28,491.7,1.0,1.199999999999818,0.0020975353959094877,10.043838489772991
764,4545.28,491.7,99.4,1177,39.78,1,Apollo,1000,4.0,2500,4546.01,591.4,1.0,0.7300000000004729,0.0014846451088071446,6.6316127720197535
765,4546.01,591.4,98.1,1147,38.19,1,Apollo,1000,4.0,2500,4547.2,492.4,1.0,1.1899999999995998,0.0020121745011829556,9.79043625295579
766,4547.2,492.4,99.2,1074,38.34,1,Apollo,1000,4.0,2500,4548.28,471.7,1.0,1.0799999999999272,0.002193338748984418,9.803346872460754
767,4548.28,471.7,104.1,1029,34.74,1,Apollo,1000,4.0,2500,4549.02,529.3,1.0,0.7400000000006912,0.0015687937248265661,6.88198431206918
768,4549.02,529.3,106.2,1016,31.79,1,Apollo,1000,4.0,2500,4550.73,523.9,1.0,1.7099999999991269,0.0032306820328719572,14.916705082176401
769,4550.73,523.9,104.4,1032,32.31,1,Apollo,1000,4.0,2500,4551.41,506.4,1.0,0.680000000000291,0.0012979576255016053,5.964894063755178
770,4551.41,506.4,105.7,1059,32.97,1,Apollo,1000,4.0,2500,4552.57,523.7,1.0,1.1599999999998545,0.0022906793048970272,10.366698262241986
771,4552.57,523.7,104.7,1152,30.95,1,Apollo,1000,4.0,2500,4554.57,505.0,1.0,2.0,0.0038189803322512886,17.54745083062822
772,4554.57,505.0,105.7,1028,31.86,1,Apollo,1000,4.0,2500,4556.03,553.5,1.0,1.4600000000000364,0.0028910891089109635,13.067722772277556
773,4556.03,553.5,105.1,1081,31.41,1,Apollo,1000,4.0,2500,4557.02,528.3,1.0,0.9900000000006912,0.0017886178861801106,8.431544715453041
774,4557.02,528.3,104.4,1126,31.49,1,Apollo,1000,4.0,2500,4558.5,597.1,1.0,1.4799999999995634,0.002801438576565519,12.923596441412052
775,4558.5,597.1,103.2,1109,32.07,1,Apollo,1000,4.0,2500,4559.0,553.5,1.0,0.5,0.0008373806732540613,4.093451683135154
776,4559.0,553.5,104.8,1040,30.55,1,Apollo,1000,4.0,2500,4560.56,566.6,1.0,1.5600000000004002,0.0028184281842825658,13.286070460708014
777,4560.56,566.6,106.5,1060,33.72,1,Apollo,1000,4.0,2500,4562.51,550.7,1.0,1.949999999999818,0.003441581362512916,16.403953406281563
778,4562.51,550.7,105.0,1159,33.62,1,Apollo,1000,4.0,2500,4563.0,592.3,1.0,0.4899999999997817,0.000889776647902273,4.184441619754809
779,4563.0,592.3,105.0,1027,31.82,1,Apollo,1000,4.0,2500,4564.27,568.9,1.0,1.2700000000004366,0.0021441836906980188,10.440459226746793
780,4564.27,568.9,103.8,1082,32.4,1,Apollo,1000,4.0,2500,4565.17,464.0,1.0,0.8999999999996362,0.0015820003515549942,7.55500087888603
781,4565.17,464.0,105.0,1164,31.82,1,Apollo,1000,4.0,2500,4566.69,588.0,1.0,1.519999999999527,0.0032758620689644982,14.269655172409355
782,4566.69,588.0,104.7,1144,32.04,1,Apollo,1000,4.0,2500,4567.17,594.7,1.0,0.48000000000047294,0.0008163265306130492,3.960816326534515
783,4567.17,594.7,104.5,1053,33.66,1,Apollo,1000,4.0,2500,4568.17,519.8,1.0,1.0,0.001681520094165125,8.203800235412814
784,4568.17,519.8,106.3,1089,33.94,1,Apollo,1000,4.0,2500,4570.63,555.6,1.0,2.4600000000000364,0.004732589457483718,21.67147364370944
785,4570.63,555.6,105.6,1160,32.77,1,Apollo,1000,4.0,2500,4571.13,566.2,1.0,0.5,0.0008999280057595391,4.249820014398848
786,4571.13,566.2,104.9,1074,32.25,1,Apollo,1000,4.0,2500,4572.67,572.2,1.0,1.5399999999999636,0.0027198869657364243,12.959717414340915
787,4572.67,572.2,103.9,1105,32.87,1,Apollo,1000,4.0,2500,4573.16,514.8,1.0,0.4899999999997817,0.0008563439356864413,4.1008598392152305
788,4573.16,514.8,105.0,1130,33.18,1,Apollo,1000,4.0,2500,4574.58,536.8,1.0,1.4200000000000728,0.0027583527583529,12.57588189588254
789,4574.58,536.8,103.6,1059,32.75,1,Apollo,1000,4.0,2500,4576.04,560.8,1.0,1.4600000000000364,0.0027198211624441812,12.639552906110598
790,4576.04,560.8,106.0,1157,31.63,1,Apollo,1000,4.0,2500,4577.04,549.6,1.0,1.0,0.001783166904422254,8.457917261055634
791,4577.04,549.6,102.3,1051,32.7,1,Apollo,1000,4.0,2500,4578.71,525.9,1.0,1.6700000000000728,0.0030385735080059547,14.276433770015178
792,4578.71,525.9,104.4,1108,33.95,1,Apollo,1000,4.0,2500,4579.14,532.9,1.0,0.43000000000029104,0.0008176459402933848,3.764114850734626
793,4579.14,532.9,104.5,1020,31.24,1,Apollo,1000,4.0,2500,4580.67,540.2,1.0,1.5299999999997453,0.0028710827547377468,13.297706886843347
794,4580.67,540.2,105.6,1114,31.77,1,Apollo,1000,4.0,2500,4581.19,542.8,1.0,0.5199999999995271,0.0009626064420576213,4.486516105142162
795,4581.19,542.8,103.2,1164,31.97,1,Apollo,1000,4.0,2500,4582.4,542.3,1.0,1.2100000000000364,0.002229182019159979,10.412955047900093
796,4582.4,542.3,104.4,1155,32.74,1,Apollo,1000,4.0,2500,4583.11,527.0,1.0,0.7100000000000364,0.0013092384289139524,6.1130960722850265
797,4583.11,527.0,103.9,1060,33.27,1,Apollo,1000,4.0,2500,4584.58,531.8,1.0,1.4700000000002547,0.002789373814042229,12.85343453510659
798,4584.58,531.8,103.0,1189,33.1,1,Apollo,1000,4.0,2500,4585.07,512.0,1.0,0.4899999999997817,0.0009213990221883825,4.263497555470083
799,4585.07,512.0,103.2,1155,33.1,1,Apollo,1000,4.0,2500,4586.5,566.5,1.0,1.430000000000291,0.0027929687500005684,12.702421875002585
800,4586.5,566.5,102.9,1165,32.71,1,Apollo,1000,4.0,2500,4587.23,559.1,1.0,0.7299999999995634,0.0012886142983222655,6.1415357458039175
801,4587.23,559.1,102.0,1067,31.95,1,Apollo,1000,4.0,2500,4588.68,526.8,1.0,1.4500000000007276,0.0025934537649807327,12.283634412454742
802,4588.68,526.8,103.3,1059,32.65,1,Apollo,1000,4.0,2500,4589.18,559.3,1.0,0.5,0.0009491268033409264,4.372817008352316
803,4589.18,559.3,103.9,1053,31.43,1,Apollo,1000,4.0,2500,4590.64,482.3,1.0,1.4600000000000364,0.002610405864473514,12.36601466118393
804,4590.64,482.3,102.0,1098,32.02,1,Apollo,1000,4.0,2500,4591.12,548.2,1.0,0.47999999999956344,0.000995231183909524,4.408077959772063
805,4591.12,548.2,102.9,1073,32.07,1,Apollo,1000,4.0,2500,4592.78,560.8,1.0,1.6599999999998545,0.003028091937248913,14.2102298431217
806,4592.78,560.8,104.7,1062,29.04,1,Apollo,1000,4.0,2500,4593.02,574.6,1.0,0.24000000000069122,0.00042796005706257354,2.0299001426591987
807,4593.02,574.6,104.0,1138,31.85,1,Apollo,1000,4.0,2500,4594.66,478.7,1.0,1.639999999999418,0.0028541594152443747,13.69539853810861
808,4594.66,478.7,102.5,1109,31.27,1,Apollo,1000,4.0,2500,4595.15,533.3,1.0,0.4899999999997817,0.0010236055984954705,4.519013996237803
809,4595.15,533.3,103.4,1065,31.75,1,Apollo,1000,4.0,2500,4596.69,539.4,1.0,1.5399999999999636,0.002887680480029934,13.37920120007469
810,4596.69,539.4,104.0,1064,30.01,1,Apollo,1000,4.0,2500,4597.14,546.5,1.0,0.4500000000007276,0.0008342602892115825,3.8856507230318664
811,4597.14,546.5,104.4,1112,29.52,1,Apollo,1000,4.0,2500,4598.07,510.9,1.0,0.9299999999993815,0.001701738334857057,7.974345837140168
812,4598.07,510.9,106.3,1051,31.09,1,Apollo,1000,4.0,2500,4599.07,564.3,1.0,1.0,0.0019573302016050106,8.893325504012527
813,4599.07,564.3,102.5,1131,30.69,1,Apollo,1000,4.0,2500,4600.0,486.4,1.0,0.930000000000291,0.0016480595427969006,7.840148856993416
814,4600.0,486.4,103.5,1091,30.35,1,Apollo,1000,4.0,2500,4601.18,526.5,1.0,1.180000000000291,0.002425986842105862,10.784967105265817
815,4601.18,526.5,105.7,1142,29.54,1,Apollo,1000,4.0,2500,4602.11,562.2,1.0,0.9299999999993815,0.0017663817663805916,8.135954415949005
816,4602.11,562.2,103.4,1172,29.96,1,Apollo,1000,4.0,2500,4603.13,535.1,1.0,1.0200000000004366,0.0018143009605130495,8.61575240128437
817,4603.13,535.1,104.1,1119,31.78,1,Apollo,1000,4.0,2500,4604.54,520.7,1.0,1.4099999999998545,0.0026350214913097633,12.227553728273826
818,4604.54,520.7,103.7,1118,29.22,1,Apollo,1000,4.0,2500,4605.0,556.1,1.0,0.4600000000000364,0.0008834261570962865,4.048565392740862
819,4605.0,556.1,101.8,1152,30.68,1,Apollo,1000,4.0,2500,4606.68,585.8,1.0,1.680000000000291,0.0030210393814067453,14.272598453518027
820,4606.68,585.8,100.7,1067,31.95,1,Apollo,1000,4.0,2500,4607.37,522.5,1.0,0.6899999999995998,0.001177876408329805,5.704691020822912
821,4607.37,522.5,101.6,1188,33.16,1,Apollo,1000,4.0,2500,4608.03,495.8,1.0,0.6599999999998545,0.0012631578947365635,5.797894736840826
822,4608.03,495.8,102.9,1118,29.64,1,Apollo,1000,4.0,2500,4608.76,518.2,1.0,0.7300000000004729,0.0014723678902792917,6.6009197257001215
823,4608.76,518.2,102.1,1157,29.21,1,Apollo,1000,4.0,2500,4610.57,522.5,1.0,1.8099999999994907,0.0034928598996516605,15.972149749127114
824,4610.57,522.5,103.6,1032,33.87,1,Apollo,1000,4.0,2500,4612.96,536.2,1.0,2.3900000000003274,0.0045741626794264635,20.995406698567468
825,4612.96,536.2,105.2,1078,29.48,1,Apollo,1000,4.0,2500,4614.64,486.3,1.0,1.680000000000291,0.0031331592689300466,14.55289817232628
826,4614.64,486.3,107.4,1115,27.82,1,Apollo,1000,4.0,2500,4616.73,530.6,1.0,2.089999999999236,0.00429775858523388,19.104396463081642
827,4616.73,530.6,105.7,1091,29.99,1,Apollo,1000,4.0,2500,4617.21,539.9,1.0,0.48000000000047294,0.0009046362608376798,4.181590652096091
828,4617.21,539.9,104.1,1056,28.71,1,Apollo,1000,4.0,2500,4617.67,563.5,1.0,0.4600000000000364,0.000852009631413292,3.9700240785333754
829,4617.67,563.5,105.0,1081,28.3,1,Apollo,1000,4.0,2500,4620.73,520.4,1.0,3.0599999999994907,0.00543034605146316,25.815865128655865
830,4620.73,520.4,106.2,1139,29.85,1,Apollo,1000,4.0,2500,4622.6,482.1,1.0,1.8700000000008004,0.00359338970023213,16.463474250583527
831,4622.6,482.1,104.9,1083,28.08,1,Apollo,1000,4.0,2500,4623.06,541.4,1.0,0.4600000000000364,0.0009541588881975448,4.225397220494008
832,4623.06,541.4,105.2,1078,29.64,1,Apollo,1000,4.0,2500,4624.7,518.3,1.0,1.639999999999418,0.0030291835980779795,14.13295899519262
833,4624.7,518.3,106.0,1092,27.48,1,Apollo,1000,4.0,2500,4626.64,532.4,1.0,1.9400000000005093,0.0037430059810930143,17.117514952734574
834,4626.64,532.4,106.9,1137,28.81,1,Apollo,1000,4.0,2500,4627.12,509.5,1.0,0.47999999999956344,0.0009015777610810734,4.173944402700937
835,4627.12,509.5,105.4,1032,27.09,1,Apollo,1000,4.0,2500,4628.52,555.7,1.0,1.4000000000005457,0.002747791952896066,12.469479882242348
836,4628.52,555.7,104.5,1112,28.18,1,Apollo,1000,4.0,2500,4630.59,524.4,1.0,2.069999999999709,0.0037250314918116046,17.592578729527848
837,4630.59,524.4,108.4,1086,25.43,1,Apollo,1000,4.0,2500,4631.05,532.3,1.0,0.4600000000000364,0.0008771929824562098,4.03298245614067
838,4631.05,532.3,102.7,1170,28.01,1,Apollo,1000,4.0,2500,4632.15,486.6,1.0,1.0999999999994543,0.0020665038512106978,9.56625962802456
839,4632.15,486.6,103.6,1122,26.78,1,Apollo,1000,4.0,2500,4632.82,256.1,1.0,0.6700000000000728,0.001376900945335127,6.1222523633381085
840,4632.82,256.1,155.8,285,3.75,1,Apollo,1000,4.0,2500,4634.67,401.1,1.0,1.8500000000003638,0.007223740726280218,25.459351815702
841,4634.67,401.1,130.7,631,28.66,1,Apollo,1000,4.0,2500,4635.1,398.5,1.0,0.43000000000029104,0.001072051857392897,4.400129643483407
842,4635.1,398.5,124.0,753,32.72,1,Apollo,1000,4.0,2500,4636.61,388.1,1.0,1.5099999999993088,0.003789209535757362,15.513023839390641
843,4636.61,388.1,122.5,879,36.3,1,Apollo,1000,4.0,2500,4637.32,382.8,1.0,0.7100000000000364,0.001829425405823335,7.413563514558483
844,4637.32,382.8,125.7,876,33.63,1,Apollo,1000,4.0,2500,4638.55,395.1,1.0,1.230000000000473,0.003213166144201862,12.952915360506548
845,4638.55,395.1,122.9,789,35.68,1,Apollo,1000,4.0,2500,4640.61,417.9,1.0,2.0599999999994907,0.005213869906351533,21.274674765876796
846,4640.61,417.9,124.1,897,36.08,1,Apollo,1000,4.0,2500,4641.0,419.6,1.0,0.3900000000003274,0.0009332376166554855,3.8930940416400235
847,4641.0,419.6,124.7,928,35.79,1,Apollo,1000,4.0,2500,4642.54,392.7,1.0,1.5399999999999636,0.003670162059103821,15.335405147759406
848,4642.54,392.7,124.3,897,33.4,1,Apollo,1000,4.0,2500,4644.53,45.4,1.0,1.9899999999997817,0.005067481538069218,20.628703845172172
849,4644.53,45.4,143.1,66,15.08,1,Apollo,1000,4.0,2500,4645.01,49.7,1.0,0.48000000000047294,0.010572687224680022,28.351718061701945
850,4645.01,49.7,141.5,131,15.72,1,Apollo,1000,4.0,2500,4646.5,59.7,1.0,1.4899999999997817,0.029979879275649532,80.90969818912296
851,4646.5,59.7,144.9,117,13.1,1,Apollo,1000,4.0,2500,4648.52,70.5,1.0,2.0200000000004366,0.033835845896154716,92.66961474038854
852,4648.52,70.5,142.9,140,14.17,1,Apollo,1000,4.0,2500,4649.0,72.2,1.0,0.47999999999956344,0.00680851063829168,18.941276595727455
853,4649.0,72.2,143.8,127,15.13,1,Apollo,1000,4.0,2500,4650.52,75.5,1.0,1.5200000000004366,0.021052631578953415,58.711578947385284
854,4650.52,75.5,141.4,117,15.75,1,Apollo,1000,4.0,2500,4651.02,74.6,1.0,0.5,0.006622516556291391,18.556291390728475
855,4651.02,74.6,142.7,170,16.62,1,Apollo,1000,4.0,2500,4652.0,75.5,1.0,0.9799999999995634,0.013136729222514255,36.761823056283895
856,4652.0,75.5,142.4,169,15.72,1,Apollo,1000,4.0,2500,4653.0,69.7,1.0,1.0,0.013245033112582781,37.11258278145695
857,4653.0,69.7,144.3,110,13.77,1,Apollo,1000,4.0,2500,4654.51,79.9,1.0,1.5100000000002183,0.021664275466287203,60.20068866571888
858,4654.51,79.9,144.0,128,13.66,1,Apollo,1000,4.0,2500,4655.0,80.8,1.0,0.4899999999997817,0.00613266583228763,17.2916645807182
859,4655.0,80.8,142.4,161,14.7,1,Apollo,1000,4.0,2500,4656.51,87.2,1.0,1.5100000000002183,0.01868811881188389,52.7602970297106
860,4656.51,87.2,141.5,194,16.37,1,Apollo,1000,4.0,2500,4658.52,79.3,1.0,2.0100000000002183,0.023050458715598833,65.66614678899796
861,4658.52,79.3,142.0,188,15.53,1,Apollo,1000,4.0,2500,4659.0,79.2,1.0,0.47999999999956344,0.006052963430007105,17.052408575016017
862,4659.0,79.2,143.1,138,15.03,1,Apollo,1000,4.0,2500,4660.53,86.4,1.0,1.5299999999997453,0.0193181818181786,54.415454545445485
863,4660.53,86.4,141.5,229,16.01,1,Apollo,1000,4.0,2500,4661.0,82.5,1.0,0.47000000000025466,0.005439814814817762,15.479537037045423
864,4661.0,82.5,143.0,190,14.94,1,Apollo,1000,4.0,2500,4662.02,74.8,1.0,1.0200000000004366,0.012363636363641656,34.98909090910588
865,4662.02,74.8,141.3,185,15.45,1,Apollo,1000,4.0,2500,4663.0,76.6,1.0,0.9799999999995634,0.013101604278069029,36.67401069517083
866,4663.0,76.6,141.6,179,15.08,1,Apollo,1000,4.0,2500,4664.52,81.4,1.0,1.5200000000004366,0.019843342036559224,55.688355091399806
867,4664.52,81.4,141.7,157,14.16,1,Apollo,1000,4.0,2500,4665.01,84.3,1.0,0.4899999999997817,0.006019656019653338,17.00914004913247
868,4665.01,84.3,141.7,130,13.13,1,Apollo,1000,4.0,2500,4666.5,83.9,1.0,1.4899999999997817,0.0176749703440069,50.14742586001638
869,4666.5,83.9,142.9,122,14.97,1,Apollo,1000,4.0,2500,4667.03,84.0,1.0,0.5299999999997453,0.006317044100116154,17.91261025028937
870,4667.03,84.0,141.9,215,15.66,1,Apollo,1000,4.0,2500,4668.52,84.6,1.0,1.4900000000006912,0.017738095238103466,50.30523809526143
871,4668.52,84.6,143.3,173,14.77,1,Apollo,1000,4.0,2500,4669.51,84.5,1.0,0.9899999999997817,0.011702127659571888,33.21531914892885
872,4669.51,84.5,141.8,103,15.86,1,Apollo,1000,4.0,2500,4672.55,86.9,1.0,3.0399999999999636,0.035976331360946315,102.10082840236564
873,4672.55,86.9,141.3,136,14.92,1,Apollo,1000,4.0,2500,4674.53,88.3,1.0,1.9799999999995634,0.02278481012657725,64.88202531644137
874,4674.53,88.3,140.3,220,16.13,1,Apollo,1000,4.0,2500,4675.01,84.6,1.0,0.48000000000047294,0.005436013590039332,15.510033975100221
875,4675.01,84.6,137.1,198,19.0,1,Apollo,1000,4.0,2500,4676.5,60.0,1.0,1.4899999999997817,0.017612293144205458,49.99073286051277
876,4676.5,60.0,138.8,62,18.09,1,Apollo,1000,4.0,2500,4677.01,65.0,1.0,0.5100000000002183,0.008500000000003638,23.290000000009968
877,4677.01,65.0,136.7,164,20.32,1,Apollo,1000,4.0,2500,4678.62,415.1,1.0,1.6099999999996726,0.024769230769225735,68.36307692306303
878,4678.62,415.1,121.5,531,33.14,1,Apollo,1000,4.0,2500,4679.01,447.4,1.0,0.3900000000003274,0.0009395326427374788,3.9088316068450064
879,4679.01,447.4,120.5,659,33.55,1,Apollo,1000,4.0,2500,4680.61,421.2,1.0,1.5999999999994543,0.003576218149305888,15.340545373262536
880,4680.61,421.2,122.5,640,33.72,1,Apollo,1000,4.0,2500,4682.75,424.9,1.0,2.1400000000003274,0.005080721747389192,21.261804368474287
881,4682.75,424.9,121.6,703,35.0,1,Apollo,1000,4.0,2500,4683.13,431.2,1.0,0.38000000000010914,0.000894328077194891,3.755820192987664
882,4683.13,431.2,119.8,743,34.25,1,Apollo,1000,4.0,2500,4684.57,408.4,1.0,1.4399999999995998,0.0033395176252309826,14.108794063075855
883,4684.57,408.4,120.0,706,34.17,1,Apollo,1000,4.0,2500,4685.11,400.7,1.0,0.5399999999999636,0.0013222331047991274,5.465582761997673
884,4685.11,400.7,122.2,742,32.27,1,Apollo,1000,4.0,2500,4686.55,404.9,1.0,1.4400000000005093,0.0035937110057412264,14.744277514355103
885,4686.55,404.9,123.4,743,34.45,1,Apollo,1000,4.0,2500,4687.36,387.5,1.0,0.8099999999994907,0.0020004939491219823,8.241234872802918
886,4687.36,387.5,121.5,708,32.73,1,Apollo,1000,4.0,2500,4688.61,411.8,1.0,1.25,0.0032258064516129032,13.064516129032258
887,4688.61,411.8,123.1,696,33.97,1,Apollo,1000,4.0,2500,4689.23,370.0,1.0,0.6199999999998909,0.0015055852355509735,6.243963088876997
888,4689.23,370.0,134.4,449,23.68,1,Apollo,1000,4.0,2500,4690.5,60.6,1.0,1.2700000000004366,0.003432432432433612,13.661081081085776
889,4690.5,60.6,142.8,61,11.69,1,Apollo,1000,4.0,2500,4691.03,56.5,1.0,0.5299999999997453,0.008745874587454544,23.984686468635342
890,4691.03,56.5,141.3,156,13.39,1,Apollo,1000,4.0,2500,4692.5,71.6,1.0,1.4700000000002547,0.026017699115048754,70.9242477876229
891,4692.5,71.6,137.4,194,16.04,1,Apollo,1000,4.0,2500,4693.1,401.5,1.0,0.6000000000003638,0.008379888268161507,23.349720670405222
892,4693.1,401.5,121.7,750,35.11,1,Apollo,1000,4.0,2500,4694.57,76.2,1.0,1.4699999999993452,0.0036612702366110713,15.033175591525058
893,4694.57,76.2,138.5,174,16.44,1,Apollo,1000,4.0,2500,4695.0,80.1,1.0,0.43000000000029104,0.005643044619426391,15.827611548567141
894,4695.0,80.1,139.4,171,15.77,1,Apollo,1000,4.0,2500,4696.56,76.2,1.0,1.5600000000004002,0.019475655430716606,54.929138576793115
895,4696.56,76.2,138.2,199,15.69,1,Apollo,1000,4.0,2500,4697.3,398.4,1.0,0.7399999999997817,0.009711286089235981,27.238215223089078
896,4697.3,398.4,121.1,686,32.24,1,Apollo,1000,4.0,2500,4698.58,74.9,1.0,1.2799999999997453,0.003212851405621851,13.152128514053608
897,4698.58,74.9,137.7,114,16.17,1,Apollo,1000,4.0,2500,4699.0,75.9,1.0,0.42000000000007276,0.00560747663551499,15.698691588787765
898,4699.0,75.9,138.4,93,17.02,1,Apollo,1000,4.0,2500,4700.54,71.4,1.0,1.5399999999999636,0.020289855072463284,56.88463768115807
899,4700.54,71.4,132.5,347,20.18,1,Apollo,1000,4.0,2500,4701.02,452.1,1.0,0.48000000000047294,0.006722689075636875,18.72672268909408
900,4701.02,452.1,128.5,643,24.9,1,Apollo,1000,4.0,2500,4702.7,433.3,1.0,1.6799999999993815,0.0037159920371585527,16.009980092893908
901,4702.7,433.3,119.2,809,35.08,1,Apollo,1000,4.0,2500,4703.12,431.8,1.0,0.42000000000007276,0.0009693053311794894,4.103263327949014
902,4703.12,431.8,119.1,808,34.54,1,Apollo,1000,4.0,2500,4704.67,430.7,1.0,1.550000000000182,0.0035896248263088976,15.174062065772972
903,4704.67,430.7,119.1,760,34.99,1,Apollo,1000,4.0,2500,4705.05,438.9,1.0,0.38000000000010914,0.0008822846528908966,3.725711632227678
904,4705.05,438.9,119.8,747,32.97,1,Apollo,1000,4.0,2500,4706.66,467.0,1.0,1.6099999999996726,0.003668261562997659,15.610653907492837
905,4706.66,467.0,121.6,765,35.11,1,Apollo,1000,4.0,2500,4707.06,430.7,1.0,0.4000000000005457,0.0008565310492517038,3.7413276231314425
906,4707.06,430.7,118.4,795,34.36,1,Apollo,1000,4.0,2500,4708.55,443.8,1.0,1.4899999999997817,0.0034594845600180676,14.608711400044296
907,4708.55,443.8,116.6,779,35.55,1,Apollo,1000,4.0,2500,4709.15,492.1,1.0,0.5999999999994543,0.0013519603424953905,5.779900856236294
908,4709.15,492.1,119.8,802,33.64,1,Apollo,1000,4.0,2500,4710.56,445.4,1.0,1.410000000000764,0.0028652712863254702,12.803178215816732
909,4710.56,445.4,121.0,777,34.57,1,Apollo,1000,4.0,2500,4711.17,447.0,1.0,0.6099999999996726,0.0013695554557693593,5.863888639422088
910,4711.17,447.0,120.1,823,33.26,1,Apollo,1000,4.0,2500,4712.55,430.0,1.0,1.3800000000001091,0.0030872483221478955,13.238120805370176
911,4712.55,430.0,119.7,835,33.77,1,Apollo,1000,4.0,2500,4713.17,447.3,1.0,0.6199999999998909,0.0014418604651160252,6.084651162789626
912,4713.17,447.3,122.8,791,33.98,1,Apollo,1000,4.0,2500,4714.07,460.4,1.0,0.8999999999996362,0.0020120724346068325,8.630181086515627
