,BIT_DEPTH,cost
0,1358.55,5000.6900000000005
1,1359.01,2.25
2,1360.51,0.7949999999999591
3,1361.04,2.2649999999999864
4,1362.55,0.7050000000000409
5,1363.02,2.2799999999999727
6,1364.54,0.6900000000000546
7,1365.0,2.2649999999999864
8,1366.51,0.75
9,1367.01,2.2649999999999864
10,1368.52,0.7949999999999591
11,1369.05,2.25
12,1370.55,0.7350000000000136
13,1371.04,2.205000000000041
14,1372.51,0.7350000000000136
15,1373.0,2.3099999999999454
16,1374.54,0.8099999999999454
17,1375.08,2.1900000000000546
18,1376.54,0.7050000000000409
19,1377.01,2.324999999999932
20,1378.56,0.7050000000000409
21,1379.03,2.294999999999959
22,1380.56,0.7050000000000409
23,1381.03,2.2350000000000136
24,1382.52,0.8099999999999454
25,1383.06,2.175000000000068
26,1384.51,0.7799999999999727
27,1385.03,2.2350000000000136
28,1386.52,0.9300000000001774
29,1387.14,2.8049999999998363
30,1389.01,2.25
31,1390.51,0.7949999999999591
32,1391.04,2.205000000000041
33,1392.51,0.7649999999999864
34,1393.02,2.2350000000000136
35,1394.51,0.7949999999999591
36,1395.04,2.205000000000041
37,1396.51,0.8249999999999318
38,1397.06,2.2649999999999864
39,1398.57,0.7050000000000409
40,1399.04,2.25
41,1400.54,0.7649999999999864
42,1401.05,2.205000000000041
43,1402.52,0.8399999999999181
44,1403.08,2.205000000000041
45,1404.55,0.7200000000000273
46,1405.03,2.3099999999999454
47,1406.57,0.7200000000000273
48,1407.05,2.1900000000000546
49,1408.51,0.75
50,1409.01,2.294999999999959
51,1410.54,0.8549999999999045
52,1411.11,2.1450000000000955
53,1412.54,0.7050000000000409
54,1413.01,2.41499999999985
55,1414.62,0.7050000000000409
56,1415.09,2.2350000000000136
57,1416.58,0.7050000000000409
58,1417.05,2.324999999999932
59,1418.6,0.7050000000000409
60,1419.07,2.2649999999999864
61,1420.58,0.6900000000000546
62,1421.04,2.2799999999999727
63,1422.56,0.7050000000000409
64,1423.03,2.294999999999959
65,1424.56,0.8099999999999454
66,1425.1,2.25
67,1426.6,0.6450000000000955
68,1427.03,2.25
69,1428.53,0.7200000000000273
70,1429.01,2.3999999999998636
71,1430.61,0.6450000000000955
72,1431.04,2.2350000000000136
73,1432.53,0.7350000000000136
74,1433.02,2.2350000000000136
75,1434.51,0.7949999999999591
76,1435.04,2.2200000000000273
77,1436.52,0.7649999999999864
78,1437.03,2.339999999999918
79,1438.59,0.6750000000000682
80,1439.04,2.294999999999959
81,1440.57,0.8099999999999454
82,1441.11,2.2200000000000273
83,1442.59,0.6450000000000955
84,1443.02,2.3549999999999045
85,1444.59,0.75
86,1445.09,2.115000000000123
87,1446.5,0.8249999999999318
88,1447.05,2.339999999999918
89,1448.61,0.75
90,1449.11,2.08500000000015
91,1450.5,0.7649999999999864
92,1451.01,2.3099999999999454
93,1452.55,0.8399999999999181
94,1453.11,2.115000000000123
95,1454.52,0.7799999999999727
96,1455.04,2.25
97,1456.54,0.7949999999999591
98,1457.07,2.3099999999999454
99,1458.61,0.7649999999999864
100,1459.12,2.160000000000082
101,1460.56,0.7799999999999727
102,1461.08,2.2799999999999727
103,1462.6,0.7950000000003001
104,1463.13,2.0999999999997954
105,1464.53,0.7200000000000273
106,1465.01,2.625
107,1466.76,0.4049999999999727
108,1467.03,2.4000000000002046
109,1468.63,0.7799999999999727
110,1469.15,2.084999999999809
111,1470.54,0.9600000000001501
112,1471.18,2.084999999999809
113,1472.57,0.7200000000000273
114,1473.05,2.2350000000000136
115,1474.54,0.8399999999999181
116,1475.1,2.1000000000001364
117,1476.5,0.7649999999999864
118,1477.01,2.25
119,1478.51,0.7799999999999727
120,1479.03,2.2200000000000273
121,1480.51,0.7350000000000136
122,1481.0,2.294999999999959
123,1482.53,0.7350000000000136
124,1483.02,2.2350000000000136
125,1484.51,0.7799999999999727
126,1485.03,2.25
127,1486.53,0.7649999999999864
128,1487.04,2.2200000000000273
129,1488.52,0.75
130,1489.02,2.2350000000000136
131,1490.51,0.8099999999999454
132,1491.05,2.1900000000000546
133,1492.51,0.7799999999999727
134,1493.03,2.2649999999999864
135,1494.54,0.6900000000000546
136,1495.0,2.2649999999999864
137,1496.51,0.7649999999999864
138,1497.02,2.2649999999999864
139,1498.53,0.7949999999999591
140,1499.06,2.175000000000068
141,1500.51,0.7799999999999727
142,1501.03,2.294999999999959
143,1502.56,0.7799999999999727
144,1503.08,2.2200000000000273
145,1504.56,0.8399999999999181
146,1505.12,2.08500000000015
147,1506.51,0.7649999999999864
148,1507.02,2.2200000000000273
149,1508.5,0.8999999999998636
150,1509.1,2.160000000000082
151,1510.54,0.8549999999999045
152,1511.11,2.115000000000123
153,1512.52,0.8099999999999454
154,1513.06,2.25
155,1514.56,0.7050000000000409
156,1515.03,2.4300000000001774
157,1516.65,0.5549999999998363
158,1517.02,2.25
159,1518.52,0.75
160,1519.02,2.2350000000000136
161,1520.51,0.8249999999999318
162,1521.06,2.160000000000082
163,1522.5,0.8549999999999045
164,1523.07,2.175000000000068
165,1524.52,0.7799999999999727
166,1525.04,2.324999999999932
167,1526.59,0.7350000000000136
168,1527.08,2.25
169,1528.58,0.6750000000000682
170,1529.03,2.25
171,1530.53,0.7799999999999727
172,1531.05,2.3099999999999454
173,1532.59,0.8100000000002865
174,1533.13,2.1899999999997135
175,1534.59,0.75
176,1535.09,2.130000000000109
177,1536.51,0.8099999999999454
178,1537.05,2.1900000000000546
179,1538.51,0.75
180,1539.01,2.324999999999932
181,1540.56,0.7350000000000136
182,1541.05,2.25
183,1542.55,0.7350000000000136
184,1543.04,2.2799999999999727
185,1544.56,0.75
186,1545.06,2.1900000000000546
187,1546.52,0.7799999999999727
188,1547.04,2.294999999999959
189,1548.57,0.75
190,1549.07,2.2350000000000136
191,1550.56,0.8550000000002456
192,1551.13,2.1899999999997135
193,1552.59,0.6600000000000819
194,1553.03,2.2649999999999864
195,1554.54,0.9000000000002046
196,1555.14,2.1149999999997817
197,1556.55,0.7200000000000273
198,1557.03,2.415000000000191
199,1558.64,1.0649999999997135
200,1559.35,1.8000000000000682
201,1560.55,0.75
202,1561.05,2.2649999999999864
203,1562.56,0.7799999999999727
204,1563.08,2.1900000000000546
205,1564.54,0.7200000000000273
206,1565.02,2.339999999999918
207,1566.58,0.6750000000000682
208,1567.03,2.2649999999999864
209,1568.54,0.7350000000000136
210,1569.03,2.25
211,1570.53,0.7649999999999864
212,1571.04,2.2649999999999864
213,1572.55,0.7649999999999864
214,1573.06,2.205000000000041
215,1574.53,0.8099999999999454
216,1575.07,2.1450000000000955
217,1576.5,0.75
218,1577.0,2.3549999999999045
219,1578.57,0.7350000000000136
220,1579.06,2.2649999999999864
221,1580.57,0.6750000000000682
222,1581.02,2.2649999999999864
223,1582.53,0.7350000000000136
224,1583.02,2.3099999999999454
225,1584.56,0.7350000000000136
226,1585.05,2.205000000000041
227,1586.52,0.8249999999999318
228,1587.07,2.1900000000000546
229,1588.53,0.7350000000000136
230,1589.02,2.324999999999932
231,1590.57,0.7350000000000136
232,1591.06,2.2649999999999864
233,1592.57,0.8400000000002592
234,1593.13,2.2049999999997
235,1594.6,0.9000000000002046
236,1595.2,1.9799999999999045
237,1596.52,0.7350000000000136
238,1597.01,2.3999999999998636
239,1598.61,0.6750000000000682
240,1599.06,2.160000000000082
241,1600.5,0.8549999999999045
242,1601.07,2.175000000000068
243,1602.52,0.7350000000000136
244,1603.01,2.41499999999985
245,1604.62,0.6300000000001091
246,1605.04,2.2799999999999727
247,1606.56,0.7799999999999727
248,1607.08,2.1900000000000546
249,1608.54,0.7799999999999727
250,1609.06,2.294999999999959
251,1610.59,0.6900000000000546
252,1611.05,2.370000000000232
253,1612.63,0.6899999999997135
254,1613.09,2.160000000000082
255,1614.53,0.7799999999999727
256,1615.05,2.3549999999999045
257,1616.62,0.8400000000002592
258,1617.18,2.2200000000000273
259,1618.66,0.7200000000000273
260,1619.14,2.294999999999959
261,1620.67,0.5549999999998363
262,1621.04,2.2350000000000136
263,1622.53,0.9600000000001501
264,1623.17,2.324999999999932
265,1624.72,0.4799999999999045
266,1625.04,2.4750000000001364
267,1626.69,0.5549999999998363
268,1627.06,2.2649999999999864
269,1628.57,0.9450000000001637
270,1629.2,2.03999999999985
271,1630.56,0.9300000000001774
272,1631.18,2.1449999999997544
273,1632.61,0.8550000000002456
274,1633.18,2.2799999999999727
275,1634.7,0.6299999999997681
276,1635.12,2.2650000000003274
277,1636.63,0.584999999999809
278,1637.02,2.3099999999999454
279,1638.56,0.8249999999999318
280,1639.11,1.6500000000002046
281,1640.21,0.8099999999999454
282,1640.75,2.6849999999999454
283,1642.54,0.8099999999999454
284,1643.08,2.2799999999999727
285,1644.6,0.6150000000001228
286,1645.01,2.3549999999999045
287,1646.58,0.75
288,1647.08,2.205000000000041
289,1648.55,0.7200000000000273
290,1649.03,2.46000000000015
291,1650.67,0.5249999999998636
292,1651.02,2.2350000000000136
293,1652.51,1.0050000000001091
294,1653.18,2.0249999999998636
295,1654.53,0.7649999999999864
296,1655.04,2.2649999999999864
297,1656.55,0.6750000000000682
298,1657.0,2.384999999999877
299,1658.59,0.6600000000000819
300,1659.03,2.2350000000000136
301,1660.52,0.7200000000000273
302,1661.0,2.5200000000000955
303,1662.68,0.5549999999998363
304,1663.05,2.4300000000001774
305,1664.67,0.6149999999997817
306,1665.08,2.2799999999999727
307,1666.6,0.6750000000000682
308,1667.05,2.1900000000000546
309,1668.51,0.7649999999999864
310,1669.02,2.2200000000000273
311,1670.5,0.7649999999999864
312,1671.01,2.25
313,1672.51,0.7949999999999591
314,1673.04,2.2200000000000273
315,1674.52,0.8249999999999318
316,1675.07,2.1450000000000955
317,1676.5,0.75
318,1677.0,2.3099999999999454
319,1678.54,0.8699999999998909
320,1679.12,2.115000000000123
321,1680.53,0.7350000000000136
322,1681.02,2.294999999999959
323,1682.55,0.7200000000000273
324,1683.03,2.2649999999999864
325,1684.54,0.7949999999999591
326,1685.07,2.1900000000000546
327,1686.53,0.7949999999999591
328,1687.06,2.175000000000068
329,1688.51,0.9450000000001637
330,1689.14,2.03999999999985
331,1690.5,0.9600000000001501
332,1691.14,2.084999999999809
333,1692.53,0.8099999999999454
334,1693.07,2.490000000000123
335,1694.73,0.6150000000001228
336,1695.14,2.2350000000000136
337,1696.63,0.6449999999997544
338,1697.06,2.2799999999999727
339,1698.58,0.6750000000000682
340,1699.03,2.4000000000002046
341,1700.63,0.6599999999997408
342,1701.07,2.2649999999999864
343,1702.58,0.6300000000001091
344,1703.0,2.3549999999999045
345,1704.57,0.9900000000001228
346,1705.23,2.03999999999985
347,1706.59,0.7799999999999727
348,1707.11,2.2200000000000273
349,1708.59,0.6900000000000546
350,1709.05,2.4450000000001637
351,1710.68,0.49499999999989086
352,1711.01,2.46000000000015
353,1712.65,0.5399999999998499
354,1713.01,2.384999999999877
355,1714.6,0.6900000000000546
356,1715.06,2.294999999999959
357,1716.59,0.75
358,1717.09,2.160000000000082
359,1718.53,0.8549999999999045
360,1719.1,2.370000000000232
361,1720.68,0.6449999999997544
362,1721.11,2.1000000000001364
363,1722.51,0.8549999999999045
364,1723.08,2.46000000000015
365,1724.72,0.6150000000001228
366,1725.13,2.159999999999741
367,1726.57,0.7799999999999727
368,1727.09,2.205000000000041
369,1728.56,0.9450000000001637
370,1729.19,2.0549999999998363
371,1730.56,0.8249999999999318
372,1731.11,2.1450000000000955
373,1732.54,0.7949999999999591
374,1733.07,2.4000000000002046
375,1734.67,0.5399999999998499
376,1735.03,2.2799999999999727
377,1736.55,3.1049999999999045
378,1738.62,0.5700000000001637
379,1739.0,3.0299999999999727
380,1741.02,2.384999999999877
381,1742.61,0.6000000000001364
382,1743.01,2.369999999999891
383,1744.59,0.7949999999999591
384,1745.12,2.2950000000003
385,1746.65,0.7049999999996999
386,1747.12,2.1450000000000955
387,1748.55,0.7799999999999727
388,1749.07,2.340000000000259
389,1750.63,0.6449999999997544
390,1751.06,2.175000000000068
391,1752.51,0.8399999999999181
392,1753.07,2.294999999999959
393,1754.6,0.8100000000002865
394,1755.14,2.3549999999999045
395,1756.71,0.5399999999998499
396,1757.07,2.2799999999999727
397,1758.59,0.6150000000001228
398,1759.0,2.384999999999877
399,1760.59,0.7350000000000136
400,1761.08,2.715000000000259
401,1762.89,0.5999999999997954
402,1763.29,2.160000000000082
403,1764.73,0.7649999999999864
404,1765.24,2.130000000000109
405,1766.66,0.7350000000000136
406,1767.15,2.2049999999997
407,1768.62,0.5850000000001501
408,1769.01,2.294999999999959
409,1770.54,0.9300000000001774
410,1771.16,2.0549999999998363
411,1772.53,0.9750000000001364
412,1773.18,2.1900000000000546
413,1774.64,0.7199999999996862
414,1775.12,2.205000000000041
415,1776.59,0.6900000000000546
416,1777.05,2.2350000000000136
417,1778.54,0.8399999999999181
418,1779.1,2.3850000000002183
419,1780.69,0.5399999999998499
420,1781.05,2.294999999999959
421,1782.58,0.7050000000000409
422,1783.05,1.544999999999959
423,1784.08,1.0500000000000682
424,1784.78,2.714999999999918
425,1786.59,0.6450000000000955
426,1787.02,2.505000000000109
427,1788.69,0.5699999999998226
428,1789.07,2.4300000000001774
429,1790.69,0.4799999999999045
430,1791.01,2.6100000000000136
431,1792.75,0.43499999999994543
432,1793.04,2.4750000000001364
433,1794.69,0.8699999999998909
434,1795.27,1.9349999999999454
435,1796.56,0.75
436,1797.06,2.205000000000041
437,1798.53,0.9300000000001774
438,1799.15,2.1449999999997544
439,1800.58,0.8099999999999454
440,1801.12,2.160000000000082
441,1802.56,0.6900000000000546
442,1803.02,2.369999999999891
443,1804.6,0.7200000000000273
444,1805.08,2.160000000000082
445,1806.52,0.7350000000000136
446,1807.01,2.384999999999877
447,1808.6,0.6750000000000682
448,1809.05,2.3099999999999454
449,1810.59,0.7350000000000136
450,1811.08,2.1900000000000546
451,1812.54,0.8099999999999454
452,1813.08,2.2799999999999727
453,1814.6,0.8100000000002865
454,1815.14,2.174999999999727
455,1816.59,0.8250000000002728
456,1817.14,2.159999999999741
457,1818.58,0.8099999999999454
458,1819.12,2.2950000000003
459,1820.65,0.5399999999998499
460,1821.01,2.3549999999999045
461,1822.58,0.8400000000002592
462,1823.14,2.0999999999997954
463,1824.54,0.8249999999999318
464,1825.09,2.325000000000273
465,1826.64,0.5699999999998226
466,1827.02,2.339999999999918
467,1828.58,0.75
468,1829.08,2.25
469,1830.58,3.165000000000191
470,1832.69,0.5999999999997954
471,1833.09,2.205000000000041
472,1834.56,0.7799999999999727
473,1835.08,2.175000000000068
474,1836.53,0.7949999999999591
475,1837.06,2.2350000000000136
476,1838.55,0.7949999999999591
477,1839.08,2.1450000000000955
478,1840.51,0.7649999999999864
479,1841.02,2.339999999999918
480,1842.58,0.7649999999999864
481,1843.09,2.294999999999959
482,1844.62,0.7800000000003138
483,1845.14,2.1149999999997817
484,1846.55,0.8549999999999045
485,1847.12,2.1450000000000955
486,1848.55,0.8249999999999318
487,1849.1,2.1000000000001364
488,1850.5,0.7649999999999864
489,1851.01,2.294999999999959
490,1852.54,0.7200000000000273
491,1853.02,2.2649999999999864
492,1854.53,0.8099999999999454
493,1855.07,2.2350000000000136
494,1856.56,0.7200000000000273
495,1857.04,2.2200000000000273
496,1858.52,0.8699999999998909
497,1859.1,2.205000000000041
498,1860.57,0.7350000000000136
499,1861.06,2.160000000000082
500,1862.5,0.7799999999999727
501,1863.02,2.3099999999999454
502,1864.56,0.7050000000000409
503,1865.03,2.46000000000015
504,1866.67,0.584999999999809
505,1867.06,2.205000000000041
506,1868.53,0.8699999999998909
507,1869.11,2.580000000000041
508,1870.83,0.3000000000000682
509,1871.03,2.205000000000041
510,1872.5,0.7649999999999864
511,1873.01,2.2649999999999864
512,1874.52,0.8399999999999181
513,1875.08,2.205000000000041
514,1876.55,0.75
515,1877.05,2.2350000000000136
516,1878.54,0.8549999999999045
517,1879.11,2.205000000000041
518,1880.58,0.7200000000000273
519,1881.06,2.324999999999932
520,1882.61,0.6900000000000546
521,1883.07,2.2200000000000273
522,1884.55,0.6900000000000546
523,1885.01,2.25
524,1886.51,0.8699999999998909
525,1887.09,2.130000000000109
526,1888.51,0.8549999999999045
527,1889.08,2.160000000000082
528,1890.52,0.8849999999998772
529,1891.11,2.1000000000001364
530,1892.51,1.0650000000000546
531,1893.22,2.115000000000123
532,1894.63,0.5999999999997954
533,1895.03,2.415000000000191
534,1896.64,0.5699999999998226
535,1897.02,2.415000000000191
536,1898.63,0.7799999999999727
537,1899.15,2.1149999999997817
538,1900.56,0.7649999999999864
539,1901.07,2.25
540,1902.57,0.8249999999999318
541,1903.12,2.175000000000068
542,1904.57,0.9300000000001774
543,1905.19,2.160000000000082
544,1906.63,0.8099999999999454
545,1907.17,2.1449999999997544
546,1908.6,0.7799999999999727
547,1909.12,2.325000000000273
548,1910.67,0.6749999999997272
549,1911.12,2.2350000000000136
550,1912.61,0.8100000000002865
551,1913.15,2.2049999999997
552,1914.62,0.8100000000002865
553,1915.16,2.0549999999998363
554,1916.53,0.8849999999998772
555,1917.12,2.2350000000000136
556,1918.61,0.6900000000000546
557,1919.07,2.3550000000002456
558,1920.64,0.584999999999809
559,1921.03,2.505000000000109
560,1922.7,0.9149999999998499
561,1923.31,1.8000000000000682
562,1924.51,0.7350000000000136
563,1925.0,2.490000000000123
564,1926.66,0.584999999999809
565,1927.05,2.3099999999999454
566,1928.59,0.8550000000002456
567,1929.16,2.0999999999997954
568,1930.56,0.7050000000000409
569,1931.03,2.339999999999918
570,1932.59,0.8850000000002183
571,1933.18,2.2799999999999727
572,1934.7,0.6149999999997817
573,1935.11,2.2649999999999864
574,1936.62,0.7950000000003001
575,1937.15,2.159999999999741
576,1938.59,0.7050000000000409
577,1939.06,1.71000000000015
578,1940.2,0.8249999999999318
579,1940.75,2.625
580,1942.5,0.7949999999999591
581,1943.03,2.2200000000000273
582,1944.51,0.7649999999999864
583,1945.02,2.25
584,1946.52,0.8699999999998909
585,1947.1,2.3100000000002865
586,1948.64,0.8249999999999318
587,1949.19,2.0999999999997954
588,1950.59,0.8850000000002183
589,1951.18,2.159999999999741
590,1952.62,1.1400000000003274
591,1953.38,1.875
592,1954.63,0.6599999999997408
593,1955.07,2.294999999999959
594,1956.6,0.6750000000000682
595,1957.05,2.3099999999999454
596,1958.59,0.6900000000000546
597,1959.05,2.3099999999999454
598,1960.59,0.6150000000001228
599,1961.0,2.25
600,1962.5,0.9149999999998499
601,1963.11,2.340000000000259
602,1964.67,0.5549999999998363
603,1965.04,2.369999999999891
604,1966.62,0.7950000000003001
605,1967.15,2.25
606,1968.65,0.5999999999997954
607,1969.05,2.2649999999999864
608,1970.56,0.7350000000000136
609,1971.05,2.205000000000041
610,1972.52,0.75
611,1973.02,2.324999999999932
612,1974.57,0.8249999999999318
613,1975.12,2.130000000000109
614,1976.54,0.915000000000191
615,1977.15,2.159999999999741
616,1978.59,0.6750000000000682
617,1979.04,2.324999999999932
618,1980.59,0.6300000000001091
619,1981.01,2.5650000000000546
620,1982.72,0.6150000000001228
621,1983.13,2.2649999999999864
622,1984.64,0.584999999999809
623,1985.03,2.369999999999891
624,1986.61,0.6300000000001091
625,1987.03,2.25
626,1988.53,0.9300000000001774
627,1989.15,2.2200000000000273
628,1990.63,0.6149999999997817
629,1991.04,2.25
630,1992.54,0.8099999999999454
631,1993.08,2.1450000000000955
632,1994.51,0.9450000000001637
633,1995.14,2.03999999999985
634,1996.5,0.7799999999999727
635,1997.02,2.2799999999999727
636,1998.54,0.8549999999999045
637,1999.11,2.2800000000003138
638,2000.63,0.6749999999997272
639,2001.08,2.2649999999999864
640,2002.59,0.8550000000002456
641,2003.16,2.1899999999997135
642,2004.62,0.7650000000003274
643,2005.13,2.294999999999959
644,2006.66,0.6149999999997817
645,2007.07,2.2649999999999864
646,2008.58,0.7799999999999727
647,2009.1,2.160000000000082
648,2010.54,0.75
649,2011.04,2.369999999999891
650,2012.62,0.6300000000001091
651,2013.04,2.2649999999999864
652,2014.55,0.915000000000191
653,2015.16,2.0699999999998226
654,2016.54,0.7649999999999864
655,2017.05,2.205000000000041
656,2018.52,0.8999999999998636
657,2019.12,2.08500000000015
658,2020.51,0.9149999999998499
659,2021.12,2.130000000000109
660,2022.54,0.7200000000000273
661,2023.02,2.4300000000001774
662,2024.64,0.584999999999809
663,2025.03,2.4000000000002046
664,2026.63,0.6899999999997135
665,2027.09,2.340000000000259
666,2028.65,0.75
667,2029.15,2.159999999999741
668,2030.59,0.8550000000002456
669,2031.16,2.2350000000000136
670,2032.65,0.6149999999997817
671,2033.06,2.294999999999959
672,2034.59,0.915000000000191
673,2035.2,2.084999999999809
674,2036.59,0.6450000000000955
675,2037.02,2.369999999999891
676,2038.6,0.6600000000000819
677,2039.04,2.25
678,2040.54,0.8399999999999181
679,2041.1,2.1450000000000955
680,2042.53,0.8399999999999181
681,2043.09,2.205000000000041
682,2044.56,0.8550000000002456
683,2045.13,2.0999999999997954
684,2046.53,0.7350000000000136
685,2047.02,2.339999999999918
686,2048.58,0.6600000000000819
687,2049.02,2.339999999999918
688,2050.58,0.6900000000000546
689,2051.04,2.325000000000273
690,2052.59,0.7349999999996726
691,2053.08,2.369999999999891
692,2054.66,0.7200000000000273
693,2055.14,2.130000000000109
694,2056.56,0.8850000000002183
695,2057.15,2.0700000000001637
696,2058.53,0.7649999999996453
697,2059.04,2.325000000000273
698,2060.59,0.8849999999995362
699,2061.18,2.085000000000491
700,2062.57,0.6449999999997544
701,2063.0,2.369999999999891
702,2064.58,0.8550000000002456
703,2065.15,2.084999999999809
704,2066.54,0.7650000000003274
705,2067.05,2.339999999999918
706,2068.61,0.8399999999999181
707,2069.17,2.0700000000001637
708,2070.55,0.9449999999994816
709,2071.18,2.2350000000003547
710,2072.67,0.6900000000000546
711,2073.13,2.0700000000001637
712,2074.51,0.75
713,2075.01,2.4449999999994816
714,2076.64,0.5550000000005184
715,2077.01,2.25
716,2078.51,1.004999999999427
717,2079.18,2.25
718,2080.68,0.5700000000001637
719,2081.06,2.505000000000109
720,2082.73,0.6149999999997817
721,2083.14,1.5750000000002728
722,2084.19,0.8399999999999181
723,2084.75,2.8049999999998363
724,2086.62,0.8099999999999454
725,2087.16,2.0700000000001637
726,2088.54,0.6900000000000546
727,2089.0,2.4450000000001637
728,2090.63,0.5700000000001637
729,2091.01,2.2799999999999727
730,2092.53,0.8849999999995362
731,2093.12,2.160000000000082
732,2094.56,0.8399999999999181
733,2095.12,2.3550000000002456
734,2096.69,0.75
735,2097.19,2.084999999999809
736,2098.58,0.7200000000000273
737,2099.06,2.5199999999997544
738,2100.74,0.46500000000060027
739,2101.05,2.4299999999998363
740,2102.67,0.6900000000000546
741,2103.13,2.1000000000001364
742,2104.53,0.8849999999995362
743,2105.12,2.4299999999998363
744,2106.74,0.43500000000062755
745,2107.03,2.414999999999509
746,2108.64,0.8999999999998636
747,2109.24,2.0250000000005457
748,2110.59,0.6449999999997544
749,2111.02,2.2799999999999727
750,2112.54,0.7350000000003547
751,2113.03,2.3549999999995634
752,2114.6,0.6750000000004093
753,2115.05,2.369999999999891
754,2116.63,0.8249999999995907
755,2117.18,2.325000000000273
756,2118.73,0.48000000000024556
757,2119.05,2.3549999999995634
758,2120.62,0.705000000000382
759,2121.09,2.160000000000082
760,2122.53,1.0499999999997272
761,2123.23,1.9049999999999727
762,2124.5,0.8550000000002456
763,2125.07,2.160000000000082
764,2126.51,0.7799999999999727
765,2127.03,2.2649999999996453
766,2128.54,0.9899999999997817
767,2129.2,2.1000000000001364
768,2130.6,0.75
769,2131.1,2.115000000000464
770,2132.51,0.8699999999998909
771,2133.09,2.2049999999997
772,2134.56,0.7799999999999727
773,2135.08,2.2950000000003
774,2136.61,0.794999999999618
775,2137.14,2.0700000000001637
776,2138.52,0.8850000000002183
777,2139.11,2.2049999999997
778,2140.58,0.75
779,2141.08,2.3099999999999454
780,2142.62,0.5850000000004911
781,2143.01,1.8899999999996453
782,2144.27,1.1549999999999727
783,2145.04,2.3099999999999454
784,2146.58,1.1849999999999454
785,2147.37,1.9200000000003001
786,2148.65,0.7200000000000273
787,2149.13,2.339999999999918
788,2150.69,0.6600000000000819
789,2151.13,2.174999999999727
790,2152.58,0.915000000000191
791,2153.19,2.130000000000109
792,2154.61,0.6149999999997817
793,2155.02,2.3999999999998636
794,2156.62,0.6000000000001364
795,2157.02,2.4450000000001637
796,2158.65,0.7200000000000273
797,2159.13,2.25
798,2160.63,3.0299999999999727
799,2162.65,0.584999999999809
800,2163.04,2.4299999999998363
801,2164.66,0.7799999999999727
802,2165.18,2.1900000000000546
803,2166.64,0.5700000000001637
804,2167.02,2.4450000000001637
805,2168.65,0.6000000000001364
806,2169.05,2.3099999999999454
807,2170.59,0.794999999999618
808,2171.12,2.130000000000109
809,2172.54,0.915000000000191
810,2173.15,2.25
811,2174.65,0.7799999999999727
812,2175.17,2.084999999999809
813,2176.56,0.8099999999999454
814,2177.1,2.2950000000003
815,2178.63,0.9149999999995089
816,2179.24,2.1000000000001364
817,2180.64,0.5850000000004911
818,2181.03,2.504999999999427
819,2182.7,0.6300000000001091
820,2183.12,1.7850000000000819
821,2184.31,1.2300000000002456
822,2185.13,2.174999999999727
823,2186.58,0.8250000000002728
824,2187.13,2.1449999999997544
825,2188.56,0.8399999999999181
826,2189.12,2.1900000000000546
827,2190.58,0.8250000000002728
828,2191.13,2.160000000000082
829,2192.57,0.7799999999999727
830,2193.09,2.2799999999999727
831,2194.61,0.6000000000001364
832,2195.01,2.294999999999618
833,2196.54,0.8250000000002728
834,2197.09,2.160000000000082
835,2198.53,0.8999999999998636
836,2199.13,2.160000000000082
837,2200.57,0.794999999999618
838,2201.1,2.2799999999999727
839,2202.62,0.75
840,2203.12,2.3999999999998636
841,2204.72,0.6750000000004093
842,2205.17,2.3099999999999454
843,2206.71,0.7049999999996999
844,2207.18,2.085000000000491
845,2208.57,0.9749999999994543
846,2209.22,2.0250000000005457
847,2210.57,0.9149999999995089
848,2211.18,2.130000000000109
849,2212.6,0.6150000000004638
850,2213.01,2.369999999999891
851,2214.59,0.8699999999998909
852,2215.17,2.174999999999727
853,2216.62,2.835000000000491
854,2218.51,0.8699999999998909
855,2219.09,2.2799999999999727
856,2220.61,0.7049999999996999
857,2221.08,2.2350000000003547
858,2222.57,0.6749999999997272
859,2223.02,2.369999999999891
860,2224.6,0.75
861,2225.1,2.115000000000464
862,2226.51,0.7649999999996453
863,2227.02,2.3550000000002456
864,2228.59,0.7799999999999727
865,2229.11,2.294999999999618
866,2230.64,0.8999999999998636
867,2231.24,2.1750000000004093
868,2232.69,0.48000000000024556
869,2233.01,2.2649999999996453
870,2234.52,0.7350000000003547
871,2235.01,2.459999999999809
872,2236.65,0.7799999999999727
873,2237.17,2.2799999999999727
874,2238.69,0.6000000000001364
875,2239.09,2.2200000000000273
876,2240.57,0.8999999999998636
877,2241.17,2.084999999999809
878,2242.56,0.75
879,2243.06,1.6350000000002183
880,2244.15,1.0199999999997544
881,2244.83,2.505000000000109
882,2246.5,0.9750000000001364
883,2247.15,2.3549999999995634
884,2248.72,3.210000000000491
885,2250.86,0.14999999999986358
886,2250.96,2.3850000000002183
887,2252.55,0.794999999999618
888,2253.08,2.3850000000002183
889,2254.67,0.7200000000000273
890,2255.15,2.0549999999998363
891,2256.52,0.8099999999999454
892,2257.06,2.3550000000002456
893,2258.63,2.910000000000082
894,2260.57,0.794999999999618
895,2261.1,2.325000000000273
896,2262.65,0.6300000000001091
897,2263.07,2.339999999999918
898,2264.63,0.5700000000001637
899,2265.01,2.7749999999998636
900,2266.86,0.29999999999972715
901,2267.06,2.339999999999918
902,2268.62,0.6150000000004638
903,2269.03,2.3099999999999454
904,2270.57,0.75
905,2271.07,2.2200000000000273
906,2272.55,0.9299999999998363
907,2273.17,2.0249999999998636
908,2274.52,0.8699999999998909
909,2275.1,2.2200000000000273
910,2276.58,0.7799999999999727
911,2277.1,2.325000000000273
912,2278.65,0.7200000000000273
913,2279.13,2.0700000000001637
914,2280.51,0.8399999999999181
915,2281.07,2.339999999999918
916,2282.63,0.7049999999996999
917,2283.1,2.160000000000082
918,2284.54,0.8550000000002456
919,2285.11,2.3099999999999454
920,2286.65,0.540000000000191
921,2287.01,2.294999999999618
922,2288.54,0.915000000000191
923,2289.15,2.25
924,2290.65,0.75
925,2291.15,2.174999999999727
926,2292.6,0.6750000000004093
927,2293.05,2.2049999999997
928,2294.52,0.7950000000003001
929,2295.05,2.294999999999618
930,2296.58,0.8550000000002456
931,2297.15,2.3249999999995907
932,2298.7,0.46500000000060027
933,2299.01,2.459999999999809
934,2300.65,0.6449999999997544
935,2301.08,2.325000000000273
936,2302.63,0.5549999999998363
937,2303.0,2.3099999999999454
938,2304.54,0.9450000000001637
939,2305.17,2.2200000000000273
940,2306.65,0.6749999999997272
941,2307.1,1.7550000000001091
942,2308.27,1.125
943,2309.02,2.4450000000001637
944,2310.65,0.5249999999998636
945,2311.0,2.3999999999998636
946,2312.6,0.6600000000000819
947,2313.04,2.25
948,2314.54,0.9299999999998363
949,2315.16,2.160000000000082
950,2316.6,0.7200000000000273
951,2317.08,2.1900000000000546
952,2318.54,0.7650000000003274
953,2319.05,2.2200000000000273
954,2320.53,0.8399999999999181
955,2321.09,2.130000000000109
956,2322.51,0.7649999999996453
957,2323.02,2.2950000000003
958,2324.55,0.8099999999999454
959,2325.09,2.174999999999727
960,2326.54,0.8850000000002183
961,2327.13,2.294999999999618
962,2328.66,0.5700000000001637
963,2329.04,2.2799999999999727
964,2330.56,0.8550000000002456
965,2331.13,2.2200000000000273
966,2332.61,0.6449999999997544
967,2333.04,2.505000000000109
968,2334.71,0.6449999999997544
969,2335.14,2.1900000000000546
970,2336.6,0.8399999999999181
971,2337.16,2.2650000000003274
972,2338.67,0.584999999999809
973,2339.06,2.3999999999998636
974,2340.66,0.6750000000004093
975,2341.11,2.174999999999727
976,2342.56,0.9450000000001637
977,2343.19,2.174999999999727
978,2344.64,0.7650000000003274
979,2345.15,2.0549999999998363
980,2346.52,1.0050000000001091
981,2347.19,2.0549999999998363
982,2348.56,0.75
983,2349.06,2.2200000000000273
984,2350.54,0.8250000000002728
985,2351.09,2.2799999999999727
986,2352.61,0.794999999999618
987,2353.14,2.1750000000004093
988,2354.59,0.794999999999618
989,2355.12,2.2799999999999727
990,2356.64,0.6150000000004638
991,2357.05,2.4299999999998363
992,2358.67,0.5249999999998636
993,2359.02,2.4750000000001364
994,2360.67,0.540000000000191
995,2361.03,2.339999999999918
996,2362.59,0.7200000000000273
997,2363.07,2.1900000000000546
998,2364.53,0.9149999999995089
999,2365.14,2.2350000000003547
1000,2366.63,0.6749999999997272
1001,2367.08,2.2799999999999727
1002,2368.6,0.6750000000004093
1003,2369.05,2.1900000000000546
1004,2370.51,0.794999999999618
1005,2371.04,2.2950000000003
1006,2372.57,0.794999999999618
1007,2373.1,2.25
1008,2374.6,0.7200000000000273
1009,2375.08,2.25
1010,2376.58,0.705000000000382
1011,2377.05,2.339999999999918
1012,2378.61,0.6749999999997272
1013,2379.06,2.4899999999997817
1014,2380.72,0.45000000000027285
1015,2381.02,2.2650000000003274
1016,2382.53,0.8399999999999181
1017,2383.09,2.339999999999918
1018,2384.65,0.5700000000001637
1019,2385.03,2.339999999999918
1020,2386.59,0.6149999999997817
1021,2387.0,2.535000000000082
1022,2388.69,0.6449999999997544
1023,2389.12,2.25
1024,2390.62,0.6150000000004638
1025,2391.03,2.414999999999509
1026,2392.64,0.7950000000003001
1027,2393.17,2.3249999999995907
1028,2394.72,0.705000000000382
1029,2395.19,2.0549999999998363
1030,2396.56,0.8250000000002728
1031,2397.11,2.3249999999995907
1032,2398.66,0.6300000000001091
1033,2399.08,2.25
1034,2400.58,0.8699999999998909
1035,2401.16,2.2950000000003
1036,2402.69,0.49499999999989086
1037,2403.02,2.3999999999998636
1038,2404.62,0.7799999999999727
1039,2405.14,2.2350000000003547
1040,2406.63,0.6449999999997544
1041,2407.06,2.3550000000002456
1042,2408.63,0.6749999999997272
1043,2409.08,2.2350000000003547
1044,2410.57,0.7799999999999727
1045,2411.09,2.130000000000109
1046,2412.51,0.9449999999994816
1047,2413.14,2.2650000000003274
1048,2414.65,0.6449999999997544
1049,2415.08,2.2350000000003547
1050,2416.57,0.8249999999995907
1051,2417.12,2.1900000000000546
1052,2418.58,0.6900000000000546
1053,2419.04,2.4299999999998363
1054,2420.66,0.5700000000001637
1055,2421.04,2.325000000000273
1056,2422.59,0.75
1057,2423.09,2.2200000000000273
1058,2424.57,0.8999999999998636
1059,2425.17,2.3249999999995907
1060,2426.72,0.7200000000000273
1061,2427.2,1.9800000000002456
1062,2428.52,0.9450000000001637
1063,2429.15,2.130000000000109
1064,2430.57,0.7049999999996999
1065,2431.04,2.4299999999998363
1066,2432.66,0.5850000000004911
1067,2433.05,2.3099999999999454
1068,2434.59,0.7349999999996726
1069,2435.08,2.2350000000003547
1070,2436.57,0.7200000000000273
1071,2437.05,2.2349999999996726
1072,2438.54,0.8250000000002728
1073,2439.09,2.3549999999995634
1074,2440.66,0.5550000000005184
1075,2441.03,2.2049999999997
1076,2442.5,0.8850000000002183
1077,2443.09,2.3099999999999454
1078,2444.63,0.6149999999997817
1079,2445.04,2.205000000000382
1080,2446.51,0.8849999999995362
1081,2447.1,2.325000000000273
1082,2448.65,0.6000000000001364
1083,2449.05,2.3249999999995907
1084,2450.6,1.080000000000382
1085,2451.32,1.9799999999995634
1086,2452.64,0.5550000000005184
1087,2453.01,2.4299999999998363
1088,2454.63,0.7049999999996999
1089,2455.1,2.115000000000464
1090,2456.51,0.8249999999995907
1091,2457.06,2.1900000000000546
1092,2458.52,0.8399999999999181
1093,2459.08,2.325000000000273
1094,2460.63,0.7649999999996453
1095,2461.14,2.1450000000004366
1096,2462.57,0.7799999999999727
1097,2463.09,2.130000000000109
1098,2464.51,0.8249999999995907
1099,2465.06,2.6100000000003547
1100,2466.8,0.5249999999998636
1101,2467.15,2.084999999999809
1102,2468.54,0.915000000000191
1103,2469.15,2.2049999999997
1104,2470.62,0.6450000000004366
1105,2471.05,2.1900000000000546
1106,2472.51,0.75
1107,2473.01,2.3549999999995634
1108,2474.58,0.75
1109,2475.08,2.325000000000273
1110,2476.63,0.7049999999996999
1111,2477.1,2.130000000000109
1112,2478.52,0.75
1113,2479.02,2.2650000000003274
1114,2480.53,0.75
1115,2481.03,2.3999999999998636
1116,2482.63,0.6900000000000546
1117,2483.09,2.3099999999999454
1118,2484.63,0.6749999999997272
1119,2485.08,2.4450000000001637
1120,2486.71,0.6600000000000819
1121,2487.15,2.0549999999998363
1122,2488.52,0.7950000000003001
1123,2489.05,2.2799999999999727
1124,2490.57,0.6600000000000819
1125,2491.01,2.5199999999997544
1126,2492.69,0.6449999999997544
1127,2493.12,2.115000000000464
1128,2494.53,0.7200000000000273
1129,2495.01,2.294999999999618
1130,2496.54,0.8850000000002183
1131,2497.13,2.2799999999999727
1132,2498.65,0.7799999999999727
1133,2499.17,2.174999999999727
1134,2500.62,2.835000000000491
1135,2502.51,0.9449999999994816
1136,2503.14,2.2200000000000273
1137,2504.62,0.8550000000002456
1138,2505.19,2.130000000000109
1139,2506.61,0.8399999999999181
1140,2507.17,2.2349999999996726
1141,2508.66,0.8399999999999181
1142,2509.22,2.1450000000004366
1143,2510.65,0.7799999999999727
1144,2511.17,2.0700000000001637
1145,2512.55,0.8699999999998909
1146,2513.13,2.1900000000000546
1147,2514.59,0.7049999999996999
1148,2515.06,2.2950000000003
1149,2516.59,0.7349999999996726
1150,2517.08,2.2650000000003274
1151,2518.59,0.8999999999998636
1152,2519.19,2.084999999999809
1153,2520.58,0.8099999999999454
1154,2521.12,2.2799999999999727
1155,2522.64,0.6300000000001091
1156,2523.06,2.25
1157,2524.56,0.8250000000002728
1158,2525.11,2.174999999999727
1159,2526.56,0.8399999999999181
1160,2527.12,2.1000000000001364
1161,2528.52,0.8550000000002456
1162,2529.09,1.6499999999998636
1163,2530.19,0.959999999999809
1164,2530.83,2.5650000000000546
1165,2532.54,0.9750000000001364
1166,2533.19,2.174999999999727
1167,2534.64,0.6300000000001091
1168,2535.06,2.4299999999998363
1169,2536.68,0.705000000000382
1170,2537.15,2.384999999999536
1171,2538.74,0.46500000000060027
1172,2539.05,2.25
1173,2540.55,0.9449999999994816
1174,2541.18,2.2350000000003547
1175,2542.67,0.7799999999999727
1176,2543.19,2.2349999999996726
1177,2544.68,0.6150000000004638
1178,2545.09,2.2049999999997
1179,2546.56,0.915000000000191
1180,2547.17,2.2649999999996453
1181,2548.68,0.540000000000191
1182,2549.04,2.2200000000000273
1183,2550.52,0.75
1184,2551.02,2.415000000000191
1185,2552.63,0.6000000000001364
1186,2553.03,2.414999999999509
1187,2554.64,0.6300000000001091
1188,2555.06,2.5650000000000546
1189,2556.77,0.49499999999989086
1190,2557.1,2.160000000000082
1191,2558.54,0.8999999999998636
1192,2559.14,2.115000000000464
1193,2560.55,0.75
1194,2561.05,2.174999999999727
1195,2562.5,0.959999999999809
1196,2563.14,2.085000000000491
1197,2564.53,0.7349999999996726
1198,2565.02,2.2650000000003274
1199,2566.53,0.7200000000000273
1200,2567.01,2.294999999999618
1201,2568.54,0.8550000000002456
1202,2569.11,2.1000000000001364
1203,2570.51,0.794999999999618
1204,2571.04,2.325000000000273
1205,2572.59,0.6449999999997544
1206,2573.02,2.339999999999918
1207,2574.58,0.705000000000382
1208,2575.05,2.25
1209,2576.55,0.7349999999996726
1210,2577.04,2.3999999999998636
1211,2578.64,0.6900000000000546
1212,2579.1,2.2799999999999727
1213,2580.62,0.8099999999999454
1214,2581.16,2.0700000000001637
1215,2582.54,0.8699999999998909
1216,2583.12,2.1750000000004093
1217,2584.57,2.9700000000000273
1218,2586.55,0.7049999999996999
1219,2587.02,3.119999999999891
1220,2589.1,5.355000000000246
1221,2592.67,0.584999999999809
1222,2593.06,3.1050000000002456
1223,2595.13,2.2200000000000273
1224,2596.61,0.8699999999998909
1225,2597.19,2.040000000000191
1226,2598.55,0.9149999999995089
1227,2599.16,2.040000000000191
1228,2600.52,0.9450000000001637
1229,2601.15,2.25
1230,2602.65,0.5549999999998363
1231,2603.02,2.3850000000002183
1232,2604.61,0.6749999999997272
1233,2605.06,2.4899999999997817
1234,2606.72,0.6600000000000819
1235,2607.16,2.160000000000082
1236,2608.6,2.9850000000003547
1237,2610.59,0.8999999999998636
1238,2611.19,2.0700000000001637
1239,2612.57,0.75
1240,2613.07,2.2649999999996453
1241,2614.58,0.6750000000004093
1242,2615.03,2.2200000000000273
1243,2616.51,0.8549999999995634
1244,2617.08,2.4450000000001637
1245,2618.71,0.6449999999997544
1246,2619.14,2.2350000000003547
1247,2620.63,0.7349999999996726
1248,2621.12,2.2350000000003547
1249,2622.61,0.8249999999995907
1250,2623.16,2.0250000000005457
1251,2624.51,0.8699999999998909
1252,2625.09,2.3249999999995907
1253,2626.64,0.5850000000004911
1254,2627.03,2.339999999999918
1255,2628.59,0.8849999999995362
1256,2629.18,2.085000000000491
1257,2630.57,0.7049999999996999
1258,2631.04,2.1900000000000546
1259,2632.5,0.9750000000001364
1260,2633.15,2.174999999999727
1261,2634.6,0.6000000000001364
1262,2635.0,2.8949999999997544
1263,2636.93,0.31500000000005457
1264,2637.14,2.2799999999999727
1265,2638.66,0.5100000000002183
1266,2639.0,2.4750000000001364
1267,2640.65,0.7649999999996453
1268,2641.16,2.2650000000003274
1269,2642.67,0.6449999999997544
1270,2643.1,2.2650000000003274
1271,2644.61,0.8399999999999181
1272,2645.17,2.0100000000002183
1273,2646.51,0.9899999999997817
1274,2647.17,2.1149999999997817
1275,2648.58,0.705000000000382
1276,2649.05,2.2200000000000273
1277,2650.53,0.7049999999996999
1278,2651.0,2.4299999999998363
1279,2652.62,0.6450000000004366
1280,2653.05,2.4299999999998363
1281,2654.67,0.6300000000001091
1282,2655.09,2.369999999999891
1283,2656.67,0.584999999999809
1284,2657.06,2.2350000000003547
1285,2658.55,0.7649999999996453
1286,2659.06,2.3850000000002183
1287,2660.65,0.540000000000191
1288,2661.01,2.3249999999995907
1289,2662.56,3.075000000000273
1290,2664.61,0.794999999999618
1291,2665.14,2.2350000000003547
1292,2666.63,0.6149999999997817
1293,2667.04,2.4450000000001637
1294,2668.67,0.6149999999997817
1295,2669.08,2.2799999999999727
1296,2670.6,0.6000000000001364
1297,2671.0,2.535000000000082
1298,2672.69,0.7049999999996999
1299,2673.16,2.1450000000004366
1300,2674.59,0.6600000000000819
1301,2675.03,2.384999999999536
1302,2676.62,0.8550000000002456
1303,2677.19,1.9649999999999181
1304,2678.5,0.9750000000001364
1305,2679.15,2.130000000000109
1306,2680.57,0.8699999999998909
1307,2681.15,2.294999999999618
1308,2682.68,0.7200000000000273
1309,2683.16,2.0550000000005184
1310,2684.53,0.8099999999999454
1311,2685.07,2.3099999999999454
1312,2686.61,0.8399999999999181
1313,2687.17,2.0249999999998636
1314,2688.52,0.8099999999999454
1315,2689.06,2.325000000000273
1316,2690.61,0.8549999999995634
1317,2691.18,2.2200000000000273
1318,2692.66,0.6300000000001091
1319,2693.08,2.505000000000109
1320,2694.75,0.75
1321,2695.25,1.9049999999999727
1322,2696.52,0.8999999999998636
1323,2697.12,2.3099999999999454
1324,2698.66,0.5100000000002183
1325,2699.0,2.4899999999997817
1326,2700.66,0.75
1327,2701.16,2.0250000000005457
1328,2702.51,1.0649999999993724
1329,2703.22,2.205000000000382
1330,2704.69,2.8500000000001364
1331,2706.59,0.7649999999996453
1332,2707.1,2.25
1333,2708.6,0.7200000000000273
1334,2709.08,2.3850000000002183
1335,2710.67,0.6449999999997544
1336,2711.1,2.205000000000382
1337,2712.57,0.8549999999995634
1338,2713.14,2.130000000000109
1339,2714.56,0.7200000000000273
1340,2715.04,2.205000000000382
1341,2716.51,1.0349999999993997
1342,2717.2,2.0250000000005457
1343,2718.55,0.9149999999995089
1344,2719.16,2.085000000000491
1345,2720.55,0.7049999999996999
1346,2721.02,2.339999999999918
1347,2722.58,0.8699999999998909
1348,2723.16,2.0250000000005457
1349,2724.51,3.0299999999999727
1350,2726.53,0.959999999999809
1351,2727.17,2.1000000000001364
1352,2728.57,0.8999999999998636
1353,2729.17,2.25
1354,2730.67,0.6000000000001364
1355,2731.07,2.459999999999809
1356,2732.71,0.6300000000001091
1357,2733.13,2.3249999999995907
1358,2734.68,0.705000000000382
1359,2735.15,2.384999999999536
1360,2736.74,0.5850000000004911
1361,2737.13,2.2799999999999727
1362,2738.65,0.7200000000000273
1363,2739.13,2.25
1364,2740.63,0.7349999999996726
1365,2741.12,1.3800000000001091
1366,2742.04,3.75
1367,2744.54,0.8399999999999181
1368,2745.1,2.205000000000382
1369,2746.57,0.8849999999995362
1370,2747.16,2.1900000000000546
1371,2748.62,0.6450000000004366
1372,2749.05,2.25
1373,2750.55,0.8399999999999181
1374,2751.11,2.1900000000000546
1375,2752.57,0.7799999999999727
1376,2753.09,2.1449999999997544
1377,2754.52,0.7799999999999727
1378,2755.04,2.325000000000273
1379,2756.59,0.6300000000001091
1380,2757.01,2.4749999999994543
1381,2758.66,0.6150000000004638
1382,2759.07,2.384999999999536
1383,2760.66,0.6150000000004638
1384,2761.07,2.174999999999727
1385,2762.52,0.7799999999999727
1386,2763.04,2.2650000000003274
1387,2764.55,0.75
1388,2765.05,2.3999999999998636
1389,2766.65,0.5249999999998636
1390,2767.0,2.459999999999809
1391,2768.64,0.6150000000004638
1392,2769.05,2.3999999999998636
1393,2770.65,0.5549999999998363
1394,2771.02,1.5299999999999727
1395,2772.04,1.080000000000382
1396,2772.76,2.8049999999998363
1397,2774.63,0.9149999999995089
1398,2775.24,1.9650000000006003
1399,2776.55,0.7349999999996726
1400,2777.04,2.2200000000000273
1401,2778.52,0.8250000000002728
1402,2779.07,2.2649999999996453
1403,2780.58,0.8399999999999181
1404,2781.14,2.1750000000004093
1405,2782.59,0.9149999999995089
1406,2783.2,2.0550000000005184
1407,2784.57,0.8849999999995362
1408,2785.16,2.085000000000491
1409,2786.55,0.8549999999995634
1410,2787.12,2.205000000000382
1411,2788.59,0.9449999999994816
1412,2789.22,2.1000000000001364
1413,2790.62,0.6150000000004638
1414,2791.03,2.384999999999536
1415,2792.62,0.6750000000004093
1416,2793.07,2.339999999999918
1417,2794.63,0.8249999999995907
1418,2795.18,2.0550000000005184
1419,2796.55,0.9449999999994816
1420,2797.18,2.085000000000491
1421,2798.57,0.8699999999998909
1422,2799.15,2.2349999999996726
1423,2800.64,0.5700000000001637
1424,2801.02,2.5199999999997544
1425,2802.7,0.6000000000001364
1426,2803.1,2.130000000000109
1427,2804.52,0.8099999999999454
1428,2805.06,2.25
1429,2806.56,0.915000000000191
1430,2807.17,2.084999999999809
1431,2808.56,0.915000000000191
1432,2809.17,2.1449999999997544
1433,2810.6,0.6600000000000819
1434,2811.04,2.339999999999918
1435,2812.6,0.6600000000000819
1436,2813.04,2.0100000000002183
1437,2814.38,0.9450000000001637
1438,2815.01,2.25
1439,2816.51,0.9449999999994816
1440,2817.14,2.3099999999999454
1441,2818.68,0.6900000000000546
1442,2819.14,2.2799999999999727
1443,2820.66,0.6150000000004638
1444,2821.07,2.294999999999618
1445,2822.6,0.7650000000003274
1446,2823.11,2.25
1447,2824.61,0.7200000000000273
1448,2825.09,2.1449999999997544
1449,2826.52,0.7650000000003274
1450,2827.03,2.2200000000000273
1451,2828.51,0.7799999999999727
1452,2829.03,2.2799999999999727
1453,2830.55,0.8399999999999181
1454,2831.11,2.1449999999997544
1455,2832.54,0.7200000000000273
1456,2833.02,2.2650000000003274
1457,2834.53,0.7649999999996453
1458,2835.04,2.205000000000382
1459,2836.51,0.9149999999995089
1460,2837.12,2.085000000000491
1461,2838.51,0.9299999999998363
1462,2839.13,2.1449999999997544
1463,2840.56,0.6900000000000546
1464,2841.02,2.3850000000002183
1465,2842.61,0.6749999999997272
1466,2843.06,2.205000000000382
1467,2844.53,0.794999999999618
1468,2845.06,2.2200000000000273
1469,2846.54,0.7799999999999727
1470,2847.06,2.2950000000003
1471,2848.59,0.8999999999998636
1472,2849.19,2.1000000000001364
1473,2850.59,0.75
1474,2851.09,2.2799999999999727
1475,2852.61,0.6749999999997272
1476,2853.06,2.2799999999999727
1477,2854.58,0.7200000000000273
1478,2855.06,2.25
1479,2856.56,0.6600000000000819
1480,2857.0,1.9049999999999727
1481,2858.27,1.3500000000001364
1482,2859.17,2.294999999999618
1483,2860.7,0.6000000000001364
1484,2861.1,2.3550000000002456
1485,2862.67,0.5549999999998363
1486,2863.04,2.205000000000382
1487,2864.51,3.209999999999809
1488,2866.65,0.6000000000001364
1489,2867.05,2.414999999999509
1490,2868.66,0.6150000000004638
1491,2869.07,2.714999999999918
1492,2870.88,0.46499999999991815
1493,2871.19,1.9649999999999181
1494,2872.5,0.8999999999998636
1495,2873.1,2.1000000000001364
1496,2874.5,0.8999999999998636
1497,2875.1,2.415000000000191
1498,2876.71,0.6000000000001364
1499,2877.11,2.2799999999999727
1500,2878.63,0.8249999999995907
1501,2879.18,2.130000000000109
1502,2880.6,0.75
1503,2881.1,2.3550000000002456
1504,2882.67,0.7799999999999727
1505,2883.19,2.0549999999998363
1506,2884.56,0.9899999999997817
1507,2885.22,1.9650000000006003
1508,2886.53,0.7649999999996453
1509,2887.04,2.25
1510,2888.54,3.1799999999998363
1511,2890.66,0.6750000000004093
1512,2891.11,2.3099999999999454
1513,2892.65,0.7049999999996999
1514,2893.12,2.2200000000000273
1515,2894.6,0.6150000000004638
1516,2895.01,2.294999999999618
1517,2896.54,0.915000000000191
1518,2897.15,2.130000000000109
1519,2898.57,0.8999999999998636
1520,2899.17,2.2349999999996726
1521,2900.66,0.6750000000004093
1522,2901.11,2.174999999999727
1523,2902.56,0.959999999999809
1524,2903.2,2.2200000000000273
1525,2904.68,0.6300000000001091
1526,2905.1,2.2200000000000273
1527,2906.58,0.9450000000001637
1528,2907.21,2.2049999999997
1529,2908.68,0.540000000000191
1530,2909.04,2.4450000000001637
1531,2910.67,0.5549999999998363
1532,2911.04,2.369999999999891
1533,2912.62,0.6150000000004638
1534,2913.03,2.4299999999998363
1535,2914.65,0.6900000000000546
1536,2915.11,2.1900000000000546
1537,2916.57,0.8099999999999454
1538,2917.11,1.4100000000000819
1539,2918.05,1.544999999999618
1540,2919.08,2.25
1541,2920.58,0.8550000000002456
1542,2921.15,2.0549999999998363
1543,2922.52,0.8699999999998909
1544,2923.1,2.3999999999998636
1545,2924.7,0.45000000000027285
1546,2925.0,2.339999999999918
1547,2926.56,0.7799999999999727
1548,2927.08,2.3850000000002183
1549,2928.67,0.5249999999998636
1550,2929.02,2.4299999999998363
1551,2930.64,0.6450000000004366
1552,2931.07,2.384999999999536
1553,2932.66,0.5850000000004911
1554,2933.05,2.2799999999999727
1555,2934.57,0.9299999999998363
1556,2935.19,1.6499999999998636
1557,2936.29,1.2149999999999181
1558,2937.1,2.2200000000000273
1559,2938.58,0.8699999999998909
1560,2939.16,2.3099999999999454
1561,2940.7,0.495000000000573
1562,2941.03,2.2349999999996726
1563,2942.52,3.209999999999809
1564,2944.66,0.6000000000001364
1565,2945.06,2.3550000000002456
1566,2946.63,0.7349999999996726
1567,2947.12,2.3550000000002456
1568,2948.69,0.584999999999809
1569,2949.08,2.2799999999999727
1570,2950.6,0.7200000000000273
1571,2951.08,2.459999999999809
1572,2952.72,0.7950000000003001
1573,2953.25,2.0100000000002183
1574,2954.59,0.9299999999998363
1575,2955.21,2.130000000000109
1576,2956.63,0.8249999999995907
1577,2957.18,2.205000000000382
1578,2958.65,0.5549999999998363
1579,2959.02,2.339999999999918
1580,2960.58,0.6600000000000819
1581,2961.02,2.505000000000109
1582,2962.69,0.6900000000000546
1583,2963.15,2.1149999999997817
1584,2964.56,0.8699999999998909
1585,2965.14,2.3850000000002183
1586,2966.73,0.5100000000002183
1587,2967.07,2.504999999999427
1588,2968.74,0.6450000000004366
1589,2969.17,2.130000000000109
1590,2970.59,0.8249999999995907
1591,2971.14,2.2200000000000273
1592,2972.62,0.75
1593,2973.12,2.085000000000491
1594,2974.51,0.7349999999996726
1595,2975.0,2.415000000000191
1596,2976.61,0.7049999999996999
1597,2977.08,2.325000000000273
1598,2978.63,0.7049999999996999
1599,2979.1,2.1750000000004093
1600,2980.55,0.9899999999997817
1601,2981.21,1.9500000000002728
1602,2982.51,1.0649999999993724
1603,2983.22,2.130000000000109
1604,2984.64,0.6150000000004638
1605,2985.05,2.3249999999995907
1606,2986.6,0.8699999999998909
1607,2987.18,2.0250000000005457
1608,2988.53,0.7349999999996726
1609,2989.02,2.2200000000000273
1610,2990.5,0.8550000000002456
1611,2991.07,2.294999999999618
1612,2992.6,0.8399999999999181
1613,2993.16,2.1900000000000546
1614,2994.62,0.6300000000001091
1615,2995.04,2.4899999999997817
1616,2996.7,0.6300000000001091
1617,2997.12,2.115000000000464
1618,2998.53,0.7799999999999727
1619,2999.05,2.2799999999999727
1620,3000.57,0.6600000000000819
1621,3001.01,1.6649999999995089
1622,3002.12,0.9600000000004911
1623,3002.76,2.714999999999918
1624,3004.57,0.6749999999997272
1625,3005.02,2.2950000000003
1626,3006.55,0.75
1627,3007.05,2.3249999999995907
1628,3008.6,0.6300000000001091
1629,3009.02,2.3099999999999454
1630,3010.56,0.705000000000382
1631,3011.03,2.504999999999427
1632,3012.7,0.5850000000004911
1633,3013.09,2.1449999999997544
1634,3014.52,0.9450000000001637
1635,3015.15,2.040000000000191
1636,3016.51,0.794999999999618
1637,3017.04,2.3099999999999454
1638,3018.58,0.7350000000003547
1639,3019.07,2.2649999999996453
1640,3020.58,0.8099999999999454
1641,3021.12,2.3850000000002183
1642,3022.71,0.6749999999997272
1643,3023.16,2.0250000000005457
1644,3024.51,0.9749999999994543
1645,3025.16,2.1000000000001364
1646,3026.56,0.8099999999999454
1647,3027.1,2.369999999999891
1648,3028.68,0.6900000000000546
1649,3029.14,2.2799999999999727
1650,3030.66,0.6750000000004093
1651,3031.11,2.3249999999995907
1652,3032.66,0.6150000000004638
1653,3033.07,2.3249999999995907
1654,3034.62,0.6750000000004093
1655,3035.07,2.1900000000000546
1656,3036.53,0.7349999999996726
1657,3037.02,2.3550000000002456
1658,3038.59,0.6149999999997817
1659,3039.0,2.325000000000273
1660,3040.55,0.7200000000000273
1661,3041.03,2.2649999999996453
1662,3042.54,0.8250000000002728
1663,3043.09,2.1449999999997544
1664,3044.52,0.8850000000002183
1665,3045.11,2.25
1666,3046.61,0.7649999999996453
1667,3047.12,2.205000000000382
1668,3048.59,0.6449999999997544
1669,3049.02,2.2350000000003547
1670,3050.51,1.004999999999427
1671,3051.18,2.115000000000464
1672,3052.59,0.8399999999999181
1673,3053.15,2.174999999999727
1674,3054.6,0.8850000000002183
1675,3055.19,2.1000000000001364
1676,3056.59,0.6900000000000546
1677,3057.05,2.294999999999618
1678,3058.58,0.75
1679,3059.08,2.2950000000003
1680,3060.61,0.6300000000001091
1681,3061.03,2.294999999999618
1682,3062.56,0.7350000000003547
1683,3063.05,2.174999999999727
1684,3064.5,0.9299999999998363
1685,3065.12,2.085000000000491
1686,3066.51,0.8099999999999454
1687,3067.05,2.2200000000000273
1688,3068.53,0.7349999999996726
1689,3069.02,2.2200000000000273
1690,3070.5,0.9750000000001364
1691,3071.15,2.294999999999618
1692,3072.68,0.5700000000001637
1693,3073.06,2.339999999999918
1694,3074.62,0.6600000000000819
1695,3075.06,2.369999999999891
1696,3076.64,0.7950000000003001
1697,3077.17,2.0549999999998363
1698,3078.54,0.7200000000000273
1699,3079.02,2.2950000000003
1700,3080.55,0.8099999999999454
1701,3081.09,1.7550000000001091
1702,3082.26,1.3499999999994543
1703,3083.16,2.160000000000082
1704,3084.6,0.8099999999999454
1705,3085.14,2.1450000000004366
1706,3086.57,0.8549999999995634
1707,3087.14,2.2650000000003274
1708,3088.65,0.6149999999997817
1709,3089.06,2.4450000000001637
1710,3090.69,0.6300000000001091
1711,3091.11,2.2200000000000273
1712,3092.59,0.6900000000000546
1713,3093.05,2.2799999999999727
1714,3094.57,0.8249999999995907
1715,3095.12,2.085000000000491
1716,3096.51,0.8249999999995907
1717,3097.06,2.2950000000003
1718,3098.59,0.6300000000001091
1719,3099.01,2.2799999999999727
1720,3100.53,0.9149999999995089
1721,3101.14,2.3099999999999454
1722,3102.68,0.6150000000004638
1723,3103.09,2.174999999999727
1724,3104.54,0.9299999999998363
1725,3105.16,2.1450000000004366
1726,3106.59,0.7049999999996999
1727,3107.06,2.25
1728,3108.56,0.705000000000382
1729,3109.03,2.4899999999997817
1730,3110.69,0.6000000000001364
1731,3111.09,2.3099999999999454
1732,3112.63,0.6900000000000546
1733,3113.09,1.8824999999994816
1734,3114.345,1.1625000000001364
1735,3115.12,2.3099999999999454
1736,3116.66,0.6150000000004638
1737,3117.07,2.25
1738,3118.57,0.6449999999997544
1739,3119.0,2.325000000000273
1740,3120.55,0.9899999999997817
1741,3121.21,1.9500000000002728
1742,3122.51,1.2599999999995362
1743,3123.35,1.8150000000000546
1744,3124.56,0.7200000000000273
1745,3125.04,2.3099999999999454
1746,3126.58,0.6750000000004093
1747,3127.03,2.3549999999995634
1748,3128.6,0.75
1749,3129.1,2.339999999999918
1750,3130.66,0.7799999999999727
1751,3131.18,2.205000000000382
1752,3132.65,0.6449999999997544
1753,3133.08,2.3850000000002183
1754,3134.67,0.7049999999996999
1755,3135.14,2.1000000000001364
1756,3136.54,0.8699999999998909
1757,3137.12,2.1900000000000546
1758,3138.58,0.8250000000002728
1759,3139.13,2.2200000000000273
1760,3140.61,0.6149999999997817
1761,3141.02,2.459999999999809
1762,3142.66,0.6600000000000819
1763,3143.1,2.3099999999999454
1764,3144.64,0.6600000000000819
1765,3145.08,2.339999999999918
1766,3146.64,0.5850000000004911
1767,3147.03,2.2799999999999727
1768,3148.55,0.75
1769,3149.05,2.3099999999999454
1770,3150.59,2.9400000000000546
1771,3152.55,0.9149999999995089
1772,3153.16,2.160000000000082
1773,3154.6,0.6150000000004638
1774,3155.01,2.8049999999998363
1775,3156.88,0.28500000000008185
1776,3157.07,2.2200000000000273
1777,3158.55,0.7049999999996999
1778,3159.02,2.2799999999999727
1779,3160.54,0.8399999999999181
1780,3161.1,2.160000000000082
1781,3162.54,0.75
1782,3163.04,2.2950000000003
1783,3164.57,0.7200000000000273
1784,3165.05,2.504999999999427
1785,3166.72,0.540000000000191
1786,3167.08,2.160000000000082
1787,3168.52,0.8399999999999181
1788,3169.08,2.3850000000002183
1789,3170.67,0.6000000000001364
1790,3171.07,2.1900000000000546
1791,3172.53,0.8849999999995362
1792,3173.12,2.1000000000001364
1793,3174.52,0.7950000000003001
1794,3175.05,2.2649999999996453
1795,3176.56,0.8699999999998909
1796,3177.14,2.0700000000001637
1797,3178.52,0.8850000000002183
1798,3179.11,2.25
1799,3180.61,0.6749999999997272
1800,3181.06,2.2650000000003274
1801,3182.57,0.75
1802,3183.07,2.174999999999727
1803,3184.52,0.7650000000003274
1804,3185.03,2.3099999999999454
1805,3186.57,0.7200000000000273
1806,3187.05,2.369999999999891
1807,3188.63,0.6000000000001364
1808,3189.03,2.2349999999996726
1809,3190.52,0.7200000000000273
1810,3191.0,2.2799999999999727
1811,3192.52,0.8699999999998909
1812,3193.1,2.339999999999918
1813,3194.66,0.5100000000002183
1814,3195.0,2.339999999999918
1815,3196.56,0.7950000000003001
1816,3197.09,2.174999999999727
1817,3198.54,0.7950000000003001
1818,3199.07,2.414999999999509
1819,3200.68,0.6000000000001364
1820,3201.08,2.25
1821,3202.58,0.6750000000004093
1822,3203.03,2.2649999999996453
1823,3204.54,0.7350000000003547
1824,3205.03,2.4299999999998363
1825,3206.65,0.6600000000000819
1826,3207.09,2.3249999999995907
1827,3208.64,0.5550000000005184
1828,3209.01,2.3099999999999454
1829,3210.55,0.6749999999997272
1830,3211.0,2.4750000000001364
1831,3212.65,2.8949999999997544
1832,3214.58,0.75
1833,3215.08,2.3999999999998636
1834,3216.68,0.6750000000004093
1835,3217.13,2.294999999999618
1836,3218.66,0.5850000000004911
1837,3219.05,2.459999999999809
1838,3220.69,0.6449999999997544
1839,3221.12,2.130000000000109
1840,3222.54,0.8850000000002183
1841,3223.13,2.1149999999997817
1842,3224.54,0.8850000000002183
1843,3225.13,2.130000000000109
1844,3226.55,0.8249999999995907
1845,3227.1,2.115000000000464
1846,3228.51,0.8699999999998909
1847,3229.09,2.369999999999891
1848,3230.67,0.584999999999809
1849,3231.06,2.459999999999809
1850,3232.7,0.6600000000000819
1851,3233.14,2.5950000000000273
1852,3234.87,0.5100000000002183
1853,3235.21,2.1149999999997817
1854,3236.62,0.705000000000382
1855,3237.09,2.160000000000082
1856,3238.53,0.8249999999995907
1857,3239.08,2.1900000000000546
1858,3240.54,0.9299999999998363
1859,3241.16,2.1900000000000546
1860,3242.62,0.6300000000001091
1861,3243.04,2.2650000000003274
1862,3244.55,0.9449999999994816
1863,3245.18,2.130000000000109
1864,3246.6,0.8099999999999454
1865,3247.14,2.2200000000000273
1866,3248.62,0.8399999999999181
1867,3249.18,2.205000000000382
1868,3250.65,0.6149999999997817
1869,3251.06,2.2799999999999727
1870,3252.58,0.8999999999998636
1871,3253.18,2.160000000000082
1872,3254.62,0.705000000000382
1873,3255.09,2.25
1874,3256.59,0.794999999999618
1875,3257.12,2.1000000000001364
1876,3258.52,0.9450000000001637
1877,3259.15,2.0700000000001637
1878,3260.53,0.75
1879,3261.03,2.25
1880,3262.53,0.8549999999995634
1881,3263.1,2.2950000000003
1882,3264.63,0.6449999999997544
1883,3265.06,2.3099999999999454
1884,3266.6,0.8699999999998909
1885,3267.18,2.0250000000005457
1886,3268.53,0.7799999999999727
1887,3269.05,2.3999999999998636
1888,3270.65,0.6300000000001091
1889,3271.07,2.1900000000000546
1890,3272.53,0.8849999999995362
1891,3273.12,2.130000000000109
1892,3274.54,0.7799999999999727
1893,3275.06,2.1750000000004093
1894,3276.51,0.8099999999999454
1895,3277.05,2.369999999999891
1896,3278.63,0.6300000000001091
1897,3279.05,2.2349999999996726
1898,3280.54,0.9450000000001637
1899,3281.17,2.2049999999997
1900,3282.64,0.7799999999999727
1901,3283.16,2.0700000000001637
1902,3284.54,0.9299999999998363
1903,3285.16,2.325000000000273
1904,3286.71,0.6300000000001091
1905,3287.13,2.0700000000001637
1906,3288.51,0.7649999999996453
1907,3289.02,2.2799999999999727
1908,3290.54,0.8399999999999181
1909,3291.1,2.205000000000382
1910,3292.57,0.6600000000000819
1911,3293.01,2.339999999999918
1912,3294.57,0.9449999999994816
1913,3295.2,1.9650000000006003
1914,3296.51,0.8399999999999181
1915,3297.07,2.384999999999536
1916,3298.66,0.705000000000382
1917,3299.13,2.25
1918,3300.63,0.6000000000001364
1919,3301.03,2.369999999999891
1920,3302.61,0.8249999999995907
1921,3303.16,2.2950000000003
1922,3304.69,0.540000000000191
1923,3305.05,2.174999999999727
1924,3306.5,0.9899999999997817
1925,3307.16,2.2650000000003274
1926,3308.67,0.6000000000001364
1927,3309.07,2.2049999999997
1928,3310.54,0.7650000000003274
1929,3311.05,2.25
1930,3312.55,0.7649999999996453
1931,3313.06,2.4450000000001637
1932,3314.69,0.584999999999809
1933,3315.08,2.2200000000000273
1934,3316.56,0.7200000000000273
1935,3317.04,2.325000000000273
1936,3318.59,0.7649999999996453
1937,3319.1,2.160000000000082
1938,3320.54,0.8099999999999454
1939,3321.08,2.160000000000082
1940,3322.52,0.8099999999999454
1941,3323.06,2.25
1942,3324.56,0.9299999999998363
1943,3325.18,2.0550000000005184
1944,3326.55,0.7349999999996726
1945,3327.04,2.2350000000003547
1946,3328.53,0.7649999999996453
1947,3329.04,2.4750000000001364
1948,3330.69,0.6449999999997544
1949,3331.12,2.1750000000004093
1950,3332.57,0.8849999999995362
1951,3333.16,2.1000000000001364
1952,3334.56,0.6600000000000819
1953,3335.0,2.4299999999998363
1954,3336.62,0.6450000000004366
1955,3337.05,2.3099999999999454
1956,3338.59,0.7799999999999727
1957,3339.11,2.339999999999918
1958,3340.67,0.794999999999618
1959,3341.2,2.130000000000109
1960,3342.62,0.5850000000004911
1961,3343.01,2.2649999999996453
1962,3344.52,0.915000000000191
1963,3345.13,2.1149999999997817
1964,3346.54,0.8999999999998636
1965,3347.14,2.205000000000382
1966,3348.61,0.6000000000001364
1967,3349.01,2.294999999999618
1968,3350.54,0.8850000000002183
1969,3351.13,2.084999999999809
1970,3352.52,0.9450000000001637
1971,3353.15,2.040000000000191
1972,3354.51,0.7799999999999727
1973,3355.03,2.2649999999996453
1974,3356.54,0.9750000000001364
1975,3357.19,2.2349999999996726
1976,3358.68,0.6300000000001091
1977,3359.1,2.3099999999999454
1978,3360.64,0.7350000000003547
1979,3361.13,2.25
1980,3362.63,1.0799999999996999
1981,3363.35,1.7850000000000819
1982,3364.54,0.8850000000002183
1983,3365.13,2.2799999999999727
1984,3366.65,0.7200000000000273
1985,3367.13,2.3549999999995634
1986,3368.7,0.6300000000001091
1987,3369.12,2.3550000000002456
1988,3370.69,0.6000000000001364
1989,3371.09,2.294999999999618
1990,3372.62,0.6450000000004366
1991,3373.05,2.3549999999995634
1992,3374.62,0.6150000000004638
1993,3375.03,2.2349999999996726
1994,3376.52,3.0299999999999727
1995,3378.54,0.7650000000003274
1996,3379.05,2.25
1997,3380.55,0.8399999999999181
1998,3381.11,2.1449999999997544
1999,3382.54,0.8399999999999181
2000,3383.1,2.3850000000002183
2001,3384.69,0.6600000000000819
2002,3385.13,2.174999999999727
2003,3386.58,0.8250000000002728
2004,3387.13,2.1900000000000546
2005,3388.59,2.9700000000000273
2006,3390.57,0.7200000000000273
2007,3391.05,2.294999999999618
2008,3392.58,0.6900000000000546
2009,3393.04,2.2200000000000273
2010,3394.52,0.8850000000002183
2011,3395.11,2.084999999999809
2012,3396.5,0.8250000000002728
2013,3397.05,2.339999999999918
2014,3398.61,0.6000000000001364
2015,3399.01,2.2649999999996453
2016,3400.52,0.75
2017,3401.02,2.25
2018,3402.52,0.8850000000002183
2019,3403.11,2.3099999999999454
2020,3404.65,0.6000000000001364
2021,3405.05,2.2649999999996453
2022,3406.56,0.7950000000003001
2023,3407.09,2.1900000000000546
2024,3408.55,0.8549999999995634
2025,3409.12,2.160000000000082
2026,3410.56,0.7950000000003001
2027,3411.09,2.25
2028,3412.59,0.75
2029,3413.09,2.294999999999618
2030,3414.62,0.6000000000001364
2031,3415.02,2.3099999999999454
2032,3416.56,0.8550000000002456
2033,3417.13,2.3249999999995907
2034,3418.68,0.6150000000004638
2035,3419.09,2.4749999999994543
2036,3420.74,0.6750000000004093
2037,3421.19,2.0700000000001637
2038,3422.57,0.8849999999995362
2039,3423.16,2.2350000000003547
2040,3424.65,0.6449999999997544
2041,3425.08,2.3550000000002456
2042,3426.65,0.5700000000001637
2043,3427.03,2.3099999999999454
2044,3428.57,0.8549999999995634
2045,3429.14,2.160000000000082
2046,3430.58,0.8699999999998909
2047,3431.16,2.2950000000003
2048,3432.69,0.6300000000001091
2049,3433.11,2.2200000000000273
2050,3434.59,0.8099999999999454
2051,3435.13,2.3999999999998636
2052,3436.73,0.46499999999991815
2053,3437.04,2.3850000000002183
2054,3438.63,0.7799999999999727
2055,3439.15,2.160000000000082
2056,3440.59,3.0599999999999454
2057,3442.63,0.6000000000001364
2058,3443.03,2.369999999999891
2059,3444.61,0.6000000000001364
2060,3445.01,1.6199999999998909
2061,3446.09,1.0350000000000819
2062,3446.78,2.834999999999809
2063,3448.67,0.5100000000002183
2064,3449.01,2.2799999999999727
2065,3450.53,0.794999999999618
2066,3451.06,2.1750000000004093
2067,3452.51,0.8699999999998909
2068,3453.09,2.3549999999995634
2069,3454.66,0.6300000000001091
2070,3455.08,2.339999999999918
2071,3456.64,0.7799999999999727
2072,3457.16,2.1000000000001364
2073,3458.56,0.7799999999999727
2074,3459.08,2.1450000000004366
2075,3460.51,0.959999999999809
2076,3461.15,2.1900000000000546
2077,3462.61,0.6000000000001364
2078,3463.01,2.2799999999999727
2079,3464.53,0.9299999999998363
2080,3465.15,2.505000000000109
2081,3466.82,0.31500000000005457
2082,3467.03,2.384999999999536
2083,3468.62,0.705000000000382
2084,3469.09,2.2049999999997
2085,3470.56,0.8699999999998909
2086,3471.14,2.1750000000004093
2087,3472.59,0.8099999999999454
2088,3473.13,1.4400000000000546
2089,3474.09,1.0350000000000819
2090,3474.78,2.8199999999994816
2091,3476.66,0.75
2092,3477.16,2.085000000000491
2093,3478.55,0.8699999999998909
2094,3479.13,2.160000000000082
2095,3480.57,0.8549999999995634
2096,3481.14,2.2799999999999727
2097,3482.66,0.5850000000004911
2098,3483.05,2.3099999999999454
2099,3484.59,0.8849999999995362
2100,3485.18,2.2350000000003547
2101,3486.67,0.75
2102,3487.17,2.4450000000001637
2103,3488.8,0.584999999999809
2104,3489.19,1.6050000000002456
2105,3490.26,1.3199999999994816
2106,3491.14,2.0700000000001637
2107,3492.52,0.75
2108,3493.02,2.3999999999998636
2109,3494.62,0.7350000000003547
2110,3495.11,2.160000000000082
2111,3496.55,0.794999999999618
2112,3497.08,2.3850000000002183
2113,3498.67,2.9849999999996726
2114,3500.66,0.6750000000004093
2115,3501.11,2.1149999999997817
2116,3502.52,0.7950000000003001
2117,3503.05,2.1900000000000546
2118,3504.51,0.7799999999999727
2119,3505.03,2.2799999999999727
2120,3506.55,0.8249999999995907
2121,3507.1,2.1000000000001364
2122,3508.5,0.7950000000003001
2123,3509.03,2.4299999999998363
2124,3510.65,0.6449999999997544
2125,3511.08,2.2350000000003547
2126,3512.57,0.959999999999809
2127,3513.21,1.9500000000002728
2128,3514.51,0.9449999999994816
2129,3515.14,2.205000000000382
2130,3516.61,0.8099999999999454
2131,3517.15,2.040000000000191
2132,3518.51,0.7649999999996453
2133,3519.02,2.084999999999809
2134,3520.41,0.9600000000004911
2135,3521.05,2.3249999999995907
2136,3522.6,0.8699999999998909
2137,3523.18,1.9800000000002456
2138,3524.5,0.9299999999998363
2139,3525.12,2.1000000000001364
2140,3526.52,0.959999999999809
2141,3527.16,2.0700000000001637
2142,3528.54,0.8999999999998636
2143,3529.14,2.130000000000109
2144,3530.56,0.6750000000004093
2145,3531.01,2.2649999999996453
2146,3532.52,0.8850000000002183
2147,3533.11,2.2049999999997
2148,3534.58,0.75
2149,3535.08,2.205000000000382
2150,3536.55,0.7649999999996453
2151,3537.06,2.1900000000000546
2152,3538.52,0.915000000000191
2153,3539.13,2.174999999999727
2154,3540.58,0.6900000000000546
2155,3541.04,2.3550000000002456
2156,3542.61,0.6600000000000819
2157,3543.05,2.2649999999996453
2158,3544.56,0.7799999999999727
2159,3545.08,2.1750000000004093
2160,3546.53,0.8549999999995634
2161,3547.1,2.3099999999999454
2162,3548.64,0.6450000000004366
2163,3549.07,2.2649999999996453
2164,3550.58,0.8999999999998636
2165,3551.18,2.2200000000000273
2166,3552.66,0.6150000000004638
2167,3553.07,2.3549999999995634
2168,3554.64,0.6000000000001364
2169,3555.04,1.5450000000003001
2170,3556.07,1.0350000000000819
2171,3556.76,2.669999999999618
2172,3558.54,6.0
2173,3562.54,0.7799999999999727
2174,3563.06,2.1900000000000546
2175,3564.52,0.7350000000003547
2176,3565.01,2.25
2177,3566.51,0.7649999999996453
2178,3567.02,2.25
2179,3568.52,0.7650000000003274
2180,3569.03,2.2649999999996453
2181,3570.54,0.705000000000382
2182,3571.01,2.2349999999996726
2183,3572.5,0.7950000000003001
2184,3573.03,2.25
2185,3574.53,0.7349999999996726
2186,3575.02,2.25
2187,3576.52,0.7200000000000273
2188,3577.0,2.2799999999999727
2189,3578.52,0.7799999999999727
2190,3579.04,2.2200000000000273
2191,3580.52,0.7799999999999727
2192,3581.04,2.205000000000382
2193,3582.51,0.7799999999999727
2194,3583.03,2.2049999999997
2195,3584.5,0.7650000000003274
2196,3585.01,2.3999999999998636
2197,3586.61,0.584999999999809
2198,3587.0,2.369999999999891
2199,3588.58,0.705000000000382
2200,3589.05,2.294999999999618
2201,3590.58,0.6900000000000546
2202,3591.04,2.2350000000003547
2203,3592.53,0.9149999999995089
2204,3593.14,2.25
2205,3594.64,0.5700000000001637
2206,3595.02,2.2350000000003547
2207,3596.51,0.9149999999995089
2208,3597.12,2.1000000000001364
2209,3598.52,0.8399999999999181
2210,3599.08,2.160000000000082
2211,3600.52,0.959999999999809
2212,3601.16,2.115000000000464
2213,3602.57,0.6749999999997272
2214,3603.02,2.25
2215,3604.52,0.7799999999999727
2216,3605.04,2.25
2217,3606.54,0.75
2218,3607.04,2.2350000000003547
2219,3608.53,0.7200000000000273
2220,3609.01,2.2799999999999727
2221,3610.53,0.75
2222,3611.03,2.25
2223,3612.53,0.7049999999996999
2224,3613.0,2.25
2225,3614.5,0.9750000000001364
2226,3615.15,2.0549999999998363
2227,3616.52,0.75
2228,3617.02,2.2799999999999727
2229,3618.54,0.7650000000003274
2230,3619.05,2.1900000000000546
2231,3620.51,0.7649999999996453
2232,3621.02,2.2950000000003
2233,3622.55,0.6900000000000546
2234,3623.01,2.3099999999999454
2235,3624.55,0.6749999999997272
2236,3625.0,2.2799999999999727
2237,3626.52,0.7350000000003547
2238,3627.01,2.2649999999996453
2239,3628.52,0.8399999999999181
2240,3629.08,2.1900000000000546
2241,3630.54,0.8099999999999454
2242,3631.08,2.2950000000003
2243,3632.61,0.584999999999809
2244,3633.0,2.3550000000002456
2245,3634.57,0.7049999999996999
2246,3635.04,2.2799999999999727
2247,3636.56,0.7650000000003274
2248,3637.07,2.1900000000000546
2249,3638.53,0.7649999999996453
2250,3639.04,2.2650000000003274
2251,3640.55,0.6900000000000546
2252,3641.01,2.294999999999618
2253,3642.54,0.705000000000382
2254,3643.01,2.2799999999999727
2255,3644.53,0.7649999999996453
2256,3645.04,2.2950000000003
2257,3646.57,0.7649999999996453
2258,3647.08,2.2650000000003274
2259,3648.59,0.7200000000000273
2260,3649.07,2.2200000000000273
2261,3650.55,0.8999999999998636
2262,3651.15,2.1449999999997544
2263,3652.58,0.6600000000000819
2264,3653.02,2.3850000000002183
2265,3654.61,0.7200000000000273
2266,3655.09,2.160000000000082
2267,3656.53,0.8249999999995907
2268,3657.08,2.205000000000382
2269,3658.55,0.7200000000000273
2270,3659.03,2.25
2271,3660.53,0.7649999999996453
2272,3661.04,2.2950000000003
2273,3662.57,0.794999999999618
2274,3663.1,2.115000000000464
2275,3664.51,0.75
2276,3665.01,2.25
2277,3666.51,0.7649999999996453
2278,3667.02,2.2650000000003274
2279,3668.53,0.7799999999999727
2280,3669.05,2.1900000000000546
2281,3670.51,0.7349999999996726
2282,3671.0,2.3099999999999454
2283,3672.54,0.7350000000003547
2284,3673.03,2.2200000000000273
2285,3674.51,0.8549999999995634
2286,3675.08,2.2350000000003547
2287,3676.57,0.6449999999997544
2288,3677.0,2.369999999999891
2289,3678.58,0.7350000000003547
2290,3679.07,2.160000000000082
2291,3680.51,0.794999999999618
2292,3681.04,2.2799999999999727
2293,3682.56,0.75
2294,3683.06,2.2799999999999727
2295,3684.58,0.7200000000000273
2296,3685.06,2.1900000000000546
2297,3686.52,0.7650000000003274
2298,3687.03,2.2649999999996453
2299,3688.54,0.75
2300,3689.04,2.2650000000003274
2301,3690.55,0.7349999999996726
2302,3691.04,2.205000000000382
2303,3692.51,0.7649999999996453
2304,3693.02,2.2350000000003547
2305,3694.51,0.794999999999618
2306,3695.04,2.2950000000003
2307,3696.57,0.7349999999996726
2308,3697.06,2.2200000000000273
2309,3698.54,0.7200000000000273
2310,3699.02,2.339999999999918
2311,3700.58,0.7200000000000273
2312,3701.06,2.25
2313,3702.56,0.6750000000004093
2314,3703.01,2.414999999999509
2315,3704.62,0.6300000000001091
2316,3705.04,2.2950000000003
2317,3706.57,0.6600000000000819
2318,3707.01,2.2799999999999727
2319,3708.53,0.7200000000000273
2320,3709.01,2.339999999999918
2321,3710.57,0.75
2322,3711.07,2.160000000000082
2323,3712.51,0.7649999999996453
2324,3713.02,2.4299999999998363
2325,3714.64,0.6450000000004366
2326,3715.07,2.2200000000000273
2327,3716.55,0.7799999999999727
2328,3717.07,2.160000000000082
2329,3718.51,0.8399999999999181
2330,3719.07,2.2049999999997
2331,3720.54,0.7350000000003547
2332,3721.03,2.25
2333,3722.53,0.7049999999996999
2334,3723.0,2.3099999999999454
2335,3724.54,0.8099999999999454
2336,3725.08,2.2650000000003274
2337,3726.59,0.75
2338,3727.09,2.2349999999996726
2339,3728.58,0.6750000000004093
2340,3729.03,2.2349999999996726
2341,3730.52,0.7200000000000273
2342,3731.0,2.3550000000002456
2343,3732.57,0.7200000000000273
2344,3733.05,2.2349999999996726
2345,3734.54,0.705000000000382
2346,3735.01,2.2799999999999727
2347,3736.53,0.8249999999995907
2348,3737.08,2.160000000000082
2349,3738.52,0.7950000000003001
2350,3739.05,2.1900000000000546
2351,3740.51,0.794999999999618
2352,3741.04,2.2650000000003274
2353,3742.55,0.8249999999995907
2354,3743.1,2.2350000000003547
2355,3744.59,0.75
2356,3745.09,2.2049999999997
2357,3746.56,0.8099999999999454
2358,3747.1,2.2350000000003547
2359,3748.59,0.7200000000000273
2360,3749.07,2.2200000000000273
2361,3750.55,0.6900000000000546
2362,3751.01,2.3549999999995634
2363,3752.58,0.6750000000004093
2364,3753.03,2.25
2365,3754.53,0.8549999999995634
2366,3755.1,2.1750000000004093
2367,3756.55,0.7799999999999727
2368,3757.07,2.160000000000082
2369,3758.51,0.7799999999999727
2370,3759.03,2.2049999999997
2371,3760.5,0.7950000000003001
2372,3761.03,2.294999999999618
2373,3762.56,0.8399999999999181
2374,3763.12,2.085000000000491
2375,3764.51,0.8249999999995907
2376,3765.06,2.1900000000000546
2377,3766.52,0.8250000000002728
2378,3767.07,2.25
2379,3768.57,0.8399999999999181
2380,3769.13,2.1000000000001364
2381,3770.53,0.75
2382,3771.03,2.2349999999996726
2383,3772.52,0.8250000000002728
2384,3773.07,2.25
2385,3774.57,0.6449999999997544
2386,3775.0,2.325000000000273
2387,3776.55,0.6900000000000546
2388,3777.01,2.2649999999996453
2389,3778.52,0.7799999999999727
2390,3779.04,2.1900000000000546
2391,3780.5,0.8250000000002728
2392,3781.05,2.1900000000000546
2393,3782.51,0.75
2394,3783.01,2.2649999999996453
2395,3784.52,0.8250000000002728
2396,3785.07,2.1449999999997544
2397,3786.5,0.7799999999999727
2398,3787.02,2.325000000000273
2399,3788.57,0.7049999999996999
2400,3789.04,2.2799999999999727
2401,3790.56,0.7650000000003274
2402,3791.07,2.1900000000000546
2403,3792.53,0.8099999999999454
2404,3793.07,2.160000000000082
2405,3794.51,0.7799999999999727
2406,3795.03,2.2799999999999727
2407,3796.55,0.7799999999999727
2408,3797.07,2.2799999999999727
2409,3798.59,0.6749999999997272
2410,3799.04,2.2350000000003547
2411,3800.53,0.8549999999995634
2412,3801.1,2.2200000000000273
2413,3802.58,0.705000000000382
2414,3803.05,2.2049999999997
2415,3804.52,0.8550000000002456
2416,3805.09,2.4749999999994543
2417,3806.74,0.46500000000060027
2418,3807.05,2.1900000000000546
2419,3808.51,0.7649999999996453
2420,3809.02,2.3099999999999454
2421,3810.56,0.7200000000000273
2422,3811.04,2.2950000000003
2423,3812.57,0.6749999999997272
2424,3813.02,2.3850000000002183
2425,3814.61,0.7200000000000273
2426,3815.09,2.2200000000000273
2427,3816.57,0.7200000000000273
2428,3817.05,2.294999999999618
2429,3818.58,0.75
2430,3819.08,2.2200000000000273
2431,3820.56,0.6750000000004093
2432,3821.01,2.3249999999995907
2433,3822.56,0.7650000000003274
2434,3823.07,2.2799999999999727
2435,3824.59,0.75
2436,3825.09,2.174999999999727
2437,3826.54,0.8399999999999181
2438,3827.1,2.2350000000003547
2439,3828.59,0.6149999999997817
2440,3829.0,2.2950000000003
2441,3830.53,0.7200000000000273
2442,3831.01,2.369999999999891
2443,3832.59,0.7049999999996999
2444,3833.06,2.325000000000273
2445,3834.61,0.6600000000000819
2446,3835.05,2.3099999999999454
2447,3836.59,0.6749999999997272
2448,3837.04,2.2200000000000273
2449,3838.52,0.8550000000002456
2450,3839.09,2.1449999999997544
2451,3840.52,0.7350000000003547
2452,3841.01,2.3999999999998636
2453,3842.61,0.6600000000000819
2454,3843.05,2.2649999999996453
2455,3844.56,0.7950000000003001
2456,3845.09,2.1449999999997544
2457,3846.52,0.8099999999999454
2458,3847.06,2.2200000000000273
2459,3848.54,0.8099999999999454
2460,3849.08,2.130000000000109
2461,3850.5,0.8099999999999454
2462,3851.04,2.205000000000382
2463,3852.51,0.8249999999995907
2464,3853.06,2.2799999999999727
2465,3854.58,0.6450000000004366
2466,3855.01,2.369999999999891
2467,3856.59,0.6600000000000819
2468,3857.03,2.3549999999995634
2469,3858.6,0.6750000000004093
2470,3859.05,2.174999999999727
2471,3860.5,0.7950000000003001
2472,3861.03,2.2049999999997
2473,3862.5,0.8099999999999454
2474,3863.04,2.2799999999999727
2475,3864.56,0.705000000000382
2476,3865.03,2.2649999999996453
2477,3866.54,0.7799999999999727
2478,3867.06,2.1750000000004093
2479,3868.51,0.8099999999999454
2480,3869.05,2.1900000000000546
2481,3870.51,0.7799999999999727
2482,3871.03,2.459999999999809
2483,3872.67,0.6300000000001091
2484,3873.09,2.130000000000109
2485,3874.51,0.959999999999809
2486,3875.15,2.174999999999727
2487,3876.6,0.7200000000000273
2488,3877.08,2.2200000000000273
2489,3878.56,0.7950000000003001
2490,3879.09,2.1900000000000546
2491,3880.55,0.8099999999999454
2492,3881.09,2.130000000000109
2493,3882.51,0.8249999999995907
2494,3883.06,2.25
2495,3884.56,0.7650000000003274
2496,3885.07,2.1900000000000546
2497,3886.53,0.75
2498,3887.03,2.2049999999997
2499,3888.5,0.8099999999999454
2500,3889.04,2.205000000000382
2501,3890.51,1.0199999999997544
2502,3891.19,2.0249999999998636
2503,3892.54,0.7200000000000273
2504,3893.02,2.3999999999998636
2505,3894.62,0.5850000000004911
2506,3895.01,2.2799999999999727
2507,3896.53,0.7200000000000273
2508,3897.01,2.2649999999996453
2509,3898.52,0.8099999999999454
2510,3899.06,2.1750000000004093
2511,3900.51,0.8249999999995907
2512,3901.06,2.1750000000004093
2513,3902.51,0.959999999999809
2514,3903.15,2.174999999999727
2515,3904.6,0.6000000000001364
2516,3905.0,2.2799999999999727
2517,3906.52,0.8099999999999454
2518,3907.06,2.160000000000082
2519,3908.5,0.8099999999999454
2520,3909.04,2.2200000000000273
2521,3910.52,0.8099999999999454
2522,3911.06,2.2350000000003547
2523,3912.55,0.7200000000000273
2524,3913.03,2.3249999999995907
2525,3914.58,0.8850000000002183
2526,3915.17,2.0100000000002183
2527,3916.51,0.794999999999618
2528,3917.04,2.2650000000003274
2529,3918.55,0.6900000000000546
2530,3919.01,2.3099999999999454
2531,3920.55,0.75
2532,3921.05,2.2049999999997
2533,3922.52,0.8250000000002728
2534,3923.07,2.2349999999996726
2535,3924.56,0.7350000000003547
2536,3925.05,2.294999999999618
2537,3926.58,0.7950000000003001
2538,3927.11,2.130000000000109
2539,3928.53,0.7349999999996726
2540,3929.02,2.25
2541,3930.52,0.75
2542,3931.02,2.25
2543,3932.52,0.7350000000003547
2544,3933.01,2.25
2545,3934.51,0.7349999999996726
2546,3935.0,2.3099999999999454
2547,3936.54,0.75
2548,3937.04,2.2350000000003547
2549,3938.53,0.7349999999996726
2550,3939.02,2.25
2551,3940.52,0.7650000000003274
2552,3941.03,2.2200000000000273
2553,3942.51,0.8249999999995907
2554,3943.06,2.2650000000003274
2555,3944.57,0.6600000000000819
2556,3945.01,2.25
2557,3946.51,0.8399999999999181
2558,3947.07,2.1449999999997544
2559,3948.5,0.7650000000003274
2560,3949.01,2.25
2561,3950.51,0.8099999999999454
2562,3951.05,2.2649999999996453
2563,3952.56,0.7200000000000273
2564,3953.04,2.2650000000003274
2565,3954.55,0.6900000000000546
2566,3955.01,2.2799999999999727
2567,3956.53,0.8099999999999454
2568,3957.07,2.384999999999536
2569,3958.66,0.5550000000005184
2570,3959.03,2.2049999999997
2571,3960.5,0.8099999999999454
2572,3961.04,2.25
2573,3962.54,0.7650000000003274
2574,3963.05,2.2649999999996453
2575,3964.56,0.705000000000382
2576,3965.03,2.25
2577,3966.53,0.794999999999618
2578,3967.06,2.2650000000003274
2579,3968.57,0.7200000000000273
2580,3969.05,2.174999999999727
2581,3970.5,0.8550000000002456
2582,3971.07,2.2200000000000273
2583,3972.55,0.7200000000000273
2584,3973.03,2.2200000000000273
2585,3974.51,0.794999999999618
2586,3975.04,2.2350000000003547
2587,3976.53,0.7799999999999727
2588,3977.05,2.294999999999618
2589,3978.58,0.705000000000382
2590,3979.05,2.3099999999999454
2591,3980.59,0.6449999999997544
2592,3981.02,2.339999999999918
2593,3982.58,0.6300000000001091
2594,3983.0,2.2799999999999727
2595,3984.52,0.8099999999999454
2596,3985.06,2.2350000000003547
2597,3986.55,0.6900000000000546
2598,3987.01,2.2649999999996453
2599,3988.52,0.8399999999999181
2600,3989.08,2.1750000000004093
2601,3990.53,0.7649999999996453
2602,3991.04,2.2200000000000273
2603,3992.52,0.8999999999998636
2604,3993.12,2.1450000000004366
2605,3994.55,0.8099999999999454
2606,3995.09,2.1449999999997544
2607,3996.52,0.7799999999999727
2608,3997.04,2.369999999999891
2609,3998.62,0.6150000000004638
2610,3999.03,2.2799999999999727
2611,4000.55,0.7799999999999727
2612,4001.07,2.2200000000000273
2613,4002.55,0.7649999999996453
2614,4003.06,2.2799999999999727
2615,4004.58,0.75
2616,4005.08,2.2350000000003547
2617,4006.57,0.7049999999996999
2618,4007.04,2.2350000000003547
2619,4008.53,0.7200000000000273
2620,4009.01,2.2799999999999727
2621,4010.53,0.8399999999999181
2622,4011.09,2.2349999999996726
2623,4012.58,0.7799999999999727
2624,4013.1,2.1900000000000546
2625,4014.56,0.7350000000003547
2626,4015.05,2.2649999999996453
2627,4016.56,0.6750000000004093
2628,4017.01,2.3099999999999454
2629,4018.55,0.6749999999997272
2630,4019.0,2.2650000000003274
2631,4020.51,0.8099999999999454
2632,4021.05,2.2049999999997
2633,4022.52,0.7799999999999727
2634,4023.04,2.2350000000003547
2635,4024.53,0.7049999999996999
2636,4025.0,2.2799999999999727
2637,4026.52,0.7350000000003547
2638,4027.01,2.294999999999618
2639,4028.54,0.75
2640,4029.04,2.369999999999891
2641,4030.62,0.7650000000003274
2642,4031.13,2.160000000000082
2643,4032.57,0.6600000000000819
2644,4033.01,2.3099999999999454
2645,4034.55,0.75
2646,4035.05,2.1900000000000546
2647,4036.51,0.75
2648,4037.01,2.2649999999996453
2649,4038.52,0.8399999999999181
2650,4039.08,2.1450000000004366
2651,4040.51,0.75
2652,4041.01,2.2649999999996453
2653,4042.52,0.8399999999999181
2654,4043.08,2.205000000000382
2655,4044.55,0.6749999999997272
2656,4045.0,2.3099999999999454
2657,4046.54,0.75
2658,4047.04,2.205000000000382
2659,4048.51,0.7349999999996726
2660,4049.0,2.2650000000003274
2661,4050.51,0.8549999999995634
2662,4051.08,2.2799999999999727
2663,4052.6,0.6300000000001091
2664,4053.02,2.3550000000002456
2665,4054.59,0.7349999999996726
2666,4055.08,2.1450000000004366
2667,4056.51,0.8249999999995907
2668,4057.06,2.2200000000000273
2669,4058.54,0.7200000000000273
2670,4059.02,2.25
2671,4060.52,0.75
2672,4061.02,2.325000000000273
2673,4062.57,0.6900000000000546
2674,4063.03,2.2799999999999727
2675,4064.55,0.6900000000000546
2676,4065.01,2.25
2677,4066.51,0.8099999999999454
2678,4067.05,2.2200000000000273
2679,4068.53,0.7200000000000273
2680,4069.01,2.369999999999891
2681,4070.59,0.6749999999997272
2682,4071.04,2.25
2683,4072.54,0.75
2684,4073.04,2.1900000000000546
2685,4074.5,0.8999999999998636
2686,4075.1,2.1450000000004366
2687,4076.53,0.7349999999996726
2688,4077.02,2.3099999999999454
2689,4078.56,0.6900000000000546
2690,4079.02,2.3550000000002456
2691,4080.59,0.6900000000000546
2692,4081.05,2.2049999999997
2693,4082.52,0.7950000000003001
2694,4083.05,2.2049999999997
2695,4084.52,0.7950000000003001
2696,4085.05,2.25
2697,4086.55,0.75
2698,4087.05,2.2200000000000273
2699,4088.53,0.75
2700,4089.03,2.2049999999997
2701,4090.5,0.7799999999999727
2702,4091.02,2.339999999999918
2703,4092.58,0.705000000000382
2704,4093.05,2.2049999999997
2705,4094.52,0.75
2706,4095.02,2.2350000000003547
2707,4096.51,0.7799999999992906
2708,4097.03,2.235000000001037
2709,4098.52,0.794999999999618
2710,4099.05,2.1900000000000546
2711,4100.51,0.7799999999992906
2712,4101.03,2.3099999999999454
2713,4102.57,0.6750000000010914
2714,4103.02,2.2799999999992906
2715,4104.54,0.705000000000382
2716,4105.01,2.3099999999999454
2717,4106.55,0.7650000000003274
2718,4107.06,2.1900000000000546
2719,4108.52,0.75
2720,4109.02,2.384999999998854
2721,4110.61,0.6000000000008185
2722,4111.01,2.294999999999618
2723,4112.54,0.705000000000382
2724,4113.01,2.3549999999995634
2725,4114.58,0.8099999999999454
2726,4115.12,2.1149999999997817
2727,4116.53,0.7800000000006548
2728,4117.05,2.2650000000003274
2729,4118.56,0.7799999999992906
2730,4119.08,2.160000000000764
2731,4120.52,0.8699999999998909
2732,4121.1,2.174999999999727
2733,4122.55,0.794999999999618
2734,4123.08,2.3850000000002183
2735,4124.67,0.49499999999989086
2736,4125.0,2.3099999999999454
2737,4126.54,0.8099999999999454
2738,4127.08,2.1450000000004366
2739,4128.51,0.75
2740,4129.01,2.25
2741,4130.51,0.9149999999995089
2742,4131.12,2.1900000000000546
2743,4132.58,0.7200000000007094
2744,4133.06,2.2049999999990177
2745,4134.53,0.7200000000007094
2746,4135.01,2.3099999999999454
2747,4136.55,0.7199999999993452
2748,4137.03,2.3550000000009277
2749,4138.6,0.6599999999993997
2750,4139.04,2.3099999999999454
2751,4140.58,0.6450000000004366
2752,4141.01,2.339999999999236
2753,4142.57,0.705000000000382
2754,4143.04,2.2650000000003274
2755,4144.55,0.75
2756,4145.05,2.2650000000003274
2757,4146.56,0.7799999999992906
2758,4147.08,2.1900000000000546
2759,4148.54,0.705000000000382
2760,4149.01,2.25
2761,4150.51,0.839999999999236
2762,4151.07,2.205000000000382
2763,4152.54,0.6900000000000546
2764,4153.0,2.2650000000003274
2765,4154.51,0.7650000000003274
2766,4155.02,2.294999999999618
2767,4156.55,0.6900000000000546
2768,4157.01,2.3099999999999454
2769,4158.55,0.7199999999993452
2770,4159.03,2.2950000000009823
2771,4160.56,0.75
2772,4161.06,2.2049999999990177
2773,4162.53,0.7950000000009823
2774,4163.06,2.2049999999990177
2775,4164.53,0.75
2776,4165.03,2.3099999999999454
2777,4166.57,0.75
2778,4167.07,2.1750000000010914
2779,4168.52,0.7199999999993452
2780,4169.0,2.280000000000655
2781,4170.52,0.7799999999992906
2782,4171.04,2.2200000000007094
2783,4172.52,0.7649999999989632
2784,4173.03,2.3099999999999454
2785,4174.57,0.660000000000764
2786,4175.01,2.325000000000273
2787,4176.56,0.6599999999993997
2788,4177.0,2.280000000000655
2789,4178.52,0.7649999999989632
2790,4179.03,2.3099999999999454
2791,4180.57,0.660000000000764
2792,4181.01,2.3099999999999454
2793,4182.55,0.8099999999999454
2794,4183.09,2.1900000000000546
2795,4184.55,0.7799999999992906
2796,4185.07,2.25
2797,4186.57,0.660000000000764
2798,4187.01,2.339999999999236
2799,4188.57,0.660000000000764
2800,4189.01,2.339999999999236
2801,4190.57,0.705000000000382
2802,4191.04,2.294999999999618
2803,4192.57,0.660000000000764
2804,4193.01,2.3850000000002183
2805,4194.6,0.7049999999990177
2806,4195.07,2.1900000000000546
2807,4196.53,0.8099999999999454
2808,4197.07,2.160000000000764
2809,4198.51,0.8099999999999454
2810,4199.05,2.294999999999618
2811,4200.58,0.6900000000000546
2812,4201.04,2.2200000000007094
2813,4202.52,0.794999999999618
2814,4203.05,2.219999999999345
2815,4204.53,0.7800000000006548
2816,4205.05,2.1900000000000546
2817,4206.51,0.75
2818,4207.01,2.2650000000003274
2819,4208.52,0.7349999999996726
2820,4209.01,2.2349999999996726
2821,4210.5,0.8250000000002728
2822,4211.05,2.2799999999992906
2823,4212.57,0.75
2824,4213.07,2.160000000000764
2825,4214.51,0.8549999999995634
2826,4215.08,2.1900000000000546
2827,4216.54,0.7200000000007094
2828,4217.02,2.219999999999345
2829,4218.5,0.8099999999999454
2830,4219.04,2.2200000000007094
2831,4220.52,0.75
2832,4221.02,2.2349999999996726
2833,4222.51,0.794999999999618
2834,4223.04,2.294999999999618
2835,4224.57,0.7350000000010368
2836,4225.06,2.1599999999993997
2837,4226.5,0.8400000000006003
2838,4227.06,2.2349999999996726
2839,4228.55,0.705000000000382
2840,4229.02,2.2349999999996726
2841,4230.51,0.8250000000002728
2842,4231.06,2.174999999999727
2843,4232.51,0.7650000000003274
2844,4233.02,2.25
2845,4234.52,0.7649999999989632
2846,4235.03,2.2200000000007094
2847,4236.51,0.8250000000002728
2848,4237.06,2.174999999999727
2849,4238.51,0.75
2850,4239.01,2.339999999999236
2851,4240.57,0.705000000000382
2852,4241.04,2.294999999999618
2853,4242.57,0.6450000000004366
2854,4243.0,2.280000000000655
2855,4244.52,0.7649999999989632
2856,4245.03,2.2650000000003274
2857,4246.54,0.75
2858,4247.04,2.1900000000000546
2859,4248.5,0.7800000000006548
2860,4249.02,2.3249999999989086
2861,4250.57,0.6900000000000546
2862,4251.03,2.369999999999891
2863,4252.61,0.6900000000000546
2864,4253.07,2.205000000000382
2865,4254.54,0.6900000000000546
2866,4255.0,2.3400000000006003
2867,4256.56,0.7049999999990177
2868,4257.03,2.2950000000009823
2869,4258.56,0.6900000000000546
2870,4259.02,2.3099999999999454
2871,4260.56,0.6749999999997272
2872,4261.01,2.325000000000273
2873,4262.56,0.7199999999993452
2874,4263.04,2.280000000000655
2875,4264.56,0.6900000000000546
2876,4265.02,2.294999999999618
2877,4266.55,0.6749999999997272
2878,4267.0,2.3400000000006003
2879,4268.56,0.75
2880,4269.06,2.2349999999996726
2881,4270.55,0.6900000000000546
2882,4271.01,2.294999999999618
2883,4272.54,0.794999999999618
2884,4273.07,2.3099999999999454
2885,4274.61,0.6300000000001091
2886,4275.03,2.2200000000007094
2887,4276.51,0.75
2888,4277.01,2.325000000000273
2889,4278.56,0.7349999999996726
2890,4279.05,2.205000000000382
2891,4280.52,0.75
2892,4281.02,2.294999999999618
2893,4282.55,0.6749999999997272
2894,4283.0,2.25
2895,4284.5,0.8400000000006003
2896,4285.06,2.2349999999996726
2897,4286.55,0.7799999999992906
2898,4287.07,2.235000000001037
2899,4288.56,0.7199999999993452
2900,4289.04,2.280000000000655
2901,4290.56,0.7799999999992906
2902,4291.08,2.1450000000004366
2903,4292.51,0.7799999999992906
2904,4293.03,2.2200000000007094
2905,4294.51,0.7349999999996726
2906,4295.0,2.2650000000003274
2907,4296.51,0.75
2908,4297.01,2.25
2909,4298.51,0.75
2910,4299.01,2.2650000000003274
2911,4300.52,0.7349999999996726
2912,4301.01,2.25
2913,4302.51,0.75
2914,4303.01,2.25
2915,4304.51,0.75
2916,4305.01,2.2349999999996726
2917,4306.5,0.75
2918,4307.0,2.294999999999618
2919,4308.53,0.7200000000007094
2920,4309.01,2.2799999999992906
2921,4310.53,0.7350000000010368
2922,4311.02,2.2349999999996726
2923,4312.51,0.7349999999996726
2924,4313.0,2.280000000000655
2925,4314.52,0.7199999999993452
2926,4315.0,2.25
2927,4316.5,0.8400000000006003
2928,4317.06,2.174999999999727
2929,4318.51,0.839999999999236
2930,4319.07,2.2200000000007094
2931,4320.55,0.7650000000003274
2932,4321.06,2.174999999999727
2933,4322.51,0.8549999999995634
2934,4323.08,2.25
2935,4324.58,0.794999999999618
2936,4325.11,2.130000000000109
2937,4326.53,0.7650000000003274
2938,4327.04,2.25
2939,4328.54,0.75
2940,4329.04,2.325000000000273
2941,4330.59,0.6450000000004366
2942,4331.02,2.384999999998854
2943,4332.61,0.6900000000000546
2944,4333.07,2.235000000001037
2945,4334.56,0.75
2946,4335.06,2.2049999999990177
2947,4336.53,0.7950000000009823
2948,4337.06,2.1599999999993997
2949,4338.5,0.7800000000006548
2950,4339.02,2.294999999999618
2951,4340.55,0.7650000000003274
2952,4341.06,2.2349999999996726
2953,4342.55,0.794999999999618
2954,4343.08,2.2200000000007094
2955,4344.56,0.7199999999993452
2956,4345.04,2.2200000000007094
2957,4346.52,0.7349999999996726
2958,4347.01,2.294999999999618
2959,4348.54,0.7349999999996726
2960,4349.03,2.2950000000009823
2961,4350.56,0.6599999999993997
2962,4351.0,2.325000000000273
2963,4352.55,0.6900000000000546
2964,4353.01,2.294999999999618
2965,4354.54,0.7650000000003274
2966,4355.05,2.205000000000382
2967,4356.52,0.839999999999236
2968,4357.08,2.130000000000109
2969,4358.5,0.8250000000002728
2970,4359.05,2.1900000000000546
2971,4360.51,0.7650000000003274
2972,4361.02,2.25
2973,4362.52,0.75
2974,4363.02,2.25
2975,4364.52,0.8249999999989086
2976,4365.07,2.1750000000010914
2977,4366.52,0.7799999999992906
2978,4367.04,2.205000000000382
2979,4368.51,0.8549999999995634
2980,4369.08,2.2200000000007094
2981,4370.56,0.75
2982,4371.06,2.1599999999993997
2983,4372.5,3.1049999999995634
2984,4374.57,0.6900000000000546
2985,4375.03,2.2950000000009823
2986,4376.56,0.7349999999996726
2987,4377.05,2.25
2988,4378.55,0.7650000000003274
2989,4379.06,2.1900000000000546
2990,4380.52,0.7799999999992906
2991,4381.04,2.2650000000003274
2992,4382.55,0.6749999999997272
2993,4383.0,2.25
2994,4384.5,0.75
2995,4385.0,2.2650000000003274
2996,4386.51,0.75
2997,4387.01,2.2349999999996726
2998,4388.5,0.7650000000003274
2999,4389.01,2.2349999999996726
3000,4390.5,0.75
3001,4391.0,2.2650000000003274
3002,4392.51,0.7349999999996726
3003,4393.0,2.280000000000655
3004,4394.52,0.75
3005,4395.02,2.219999999999345
3006,4396.5,0.7800000000006548
3007,4397.02,2.25
3008,4398.52,0.7349999999996726
3009,4399.01,2.25
3010,4400.51,0.75
3011,4401.01,2.2349999999996726
3012,4402.5,0.7650000000003274
3013,4403.01,2.2349999999996726
3014,4404.5,0.7650000000003274
3015,4405.01,2.2349999999996726
3016,4406.5,0.75
3017,4407.0,2.25
3018,4408.5,0.7800000000006548
3019,4409.02,2.25
3020,4410.52,0.7649999999989632
3021,4411.03,2.2200000000007094
3022,4412.51,0.8250000000002728
3023,4413.06,2.264999999998963
3024,4414.57,0.7650000000003274
3025,4415.08,2.1450000000004366
3026,4416.51,0.794999999999618
3027,4417.04,2.25
3028,4418.54,0.8099999999999454
3029,4419.08,2.1450000000004366
3030,4420.51,0.75
3031,4421.01,2.2349999999996726
3032,4422.5,0.8400000000006003
3033,4423.06,2.2799999999992906
3034,4424.58,0.6900000000000546
3035,4425.04,2.294999999999618
3036,4426.57,0.6900000000000546
3037,4427.03,2.205000000000382
3038,4428.5,0.8400000000006003
3039,4429.06,2.369999999999891
3040,4430.64,0.5999999999994543
3041,4431.04,2.3099999999999454
3042,4432.58,0.705000000000382
3043,4433.05,2.3999999999991815
3044,4434.65,0.6000000000008185
3045,4435.05,2.174999999999727
3046,4436.5,0.7650000000003274
3047,4437.01,2.294999999999618
3048,4438.54,0.8099999999999454
3049,4439.08,2.2650000000003274
3050,4440.59,0.7650000000003274
3051,4441.1,2.174999999999727
3052,4442.55,0.75
3053,4443.05,2.2349999999996726
3054,4444.54,0.8099999999999454
3055,4445.08,2.205000000000382
3056,4446.55,0.8549999999995634
3057,4447.12,2.2349999999996726
3058,4448.61,0.75
3059,4449.11,2.325000000000273
3060,4450.66,0.6300000000001091
3061,4451.08,2.1900000000000546
3062,4452.54,0.7650000000003274
3063,4453.05,2.2799999999992906
3064,4454.57,0.7650000000003274
3065,4455.08,2.2650000000003274
3066,4456.59,0.75
3067,4457.09,2.2650000000003274
3068,4458.6,0.7649999999989632
3069,4459.11,2.2650000000003274
3070,4460.62,0.75
3071,4461.12,2.1450000000004366
3072,4462.55,0.7349999999996726
3073,4463.04,2.325000000000273
3074,4464.59,0.6900000000000546
3075,4465.05,2.3850000000002183
3076,4466.64,0.794999999999618
3077,4467.17,2.2799999999992906
3078,4468.69,0.5400000000008731
3079,4469.05,2.414999999999509
3080,4470.66,0.5250000000005457
3081,4471.01,2.2799999999992906
3082,4472.53,0.8099999999999454
3083,4473.07,2.2650000000003274
3084,4474.58,0.794999999999618
3085,4475.11,2.235000000001037
3086,4476.6,0.6599999999993997
3087,4477.04,2.205000000000382
3088,4478.51,0.8699999999998909
3089,4479.09,2.219999999999345
3090,4480.57,0.7950000000009823
3091,4481.1,2.2799999999992906
3092,4482.62,0.6900000000000546
3093,4483.08,2.3099999999999454
3094,4484.62,0.6900000000000546
3095,4485.08,2.130000000000109
3096,4486.5,0.9000000000005457
3097,4487.1,2.1149999999997817
3098,4488.51,0.9299999999998363
3099,4489.13,2.1149999999997817
3100,4490.54,0.9299999999998363
3101,4491.16,2.1149999999997817
3102,4492.57,0.9600000000004911
3103,4493.21,2.1149999999997817
3104,4494.62,0.7200000000007094
3105,4495.1,2.1449999999990723
3106,4496.53,0.8400000000006003
3107,4497.09,2.294999999999618
3108,4498.62,0.7349999999996726
3109,4499.11,2.205000000000382
3110,4500.58,0.7349999999996726
3111,4501.07,2.2200000000007094
3112,4502.55,0.7650000000003274
3113,4503.06,2.219999999999345
3114,4504.54,0.7650000000003274
3115,4505.05,2.219999999999345
3116,4506.53,0.8850000000002183
3117,4507.12,2.2349999999996726
3118,4508.61,0.75
3119,4509.11,2.280000000000655
3120,4510.63,0.75
3121,4511.13,2.2799999999992906
3122,4512.65,0.7800000000006548
3123,4513.17,2.0250000000005457
3124,4514.52,0.7799999999992906
3125,4515.04,2.414999999999509
3126,4516.65,0.6300000000001091
3127,4517.07,2.2650000000003274
3128,4518.58,0.75
3129,4519.08,2.174999999999727
3130,4520.53,0.75
3131,4521.03,2.280000000000655
3132,4522.55,0.7650000000003274
3133,4523.06,2.2799999999992906
3134,4524.58,0.7650000000003274
3135,4525.09,2.1450000000004366
3136,4526.52,0.7649999999989632
3137,4527.03,2.25
3138,4528.53,0.7800000000006548
3139,4529.05,2.25
3140,4530.55,0.8850000000002183
3141,4531.14,2.264999999998963
3142,4532.65,0.75
3143,4533.15,2.1450000000004366
3144,4534.58,0.75
3145,4535.08,2.130000000000109
3146,4536.5,0.75
3147,4537.0,2.25
3148,4538.5,0.8699999999998909
3149,4539.08,2.25
3150,4540.58,0.8699999999998909
3151,4541.16,2.040000000000873
3152,4542.52,0.7349999999996726
3153,4543.01,2.3999999999991815
3154,4544.61,0.615000000001146
3155,4545.02,2.384999999998854
3156,4546.61,0.9150000000008731
3157,4547.22,1.964999999999236
3158,4548.53,0.8099999999999454
3159,4549.07,2.2200000000007094
3160,4550.55,0.794999999999618
3161,4551.08,2.3549999999995634
3162,4552.65,0.6000000000008185
3163,4553.05,2.219999999999345
3164,4554.53,0.8550000000009277
3165,4555.1,2.130000000000109
3166,4556.52,0.7799999999992906
3167,4557.04,2.280000000000655
3168,4558.56,0.839999999999236
3169,4559.12,2.280000000000655
3170,4560.64,0.6599999999993997
3171,4561.08,2.25
3172,4562.58,0.8400000000006003
3173,4563.14,2.3099999999999454
3174,4564.68,0.5549999999998363
3175,4565.05,2.2349999999996726
3176,4566.54,0.8099999999999454
3177,4567.08,2.3099999999999454
3178,4568.62,0.6450000000004366
3179,4569.05,2.339999999999236
3180,4570.61,0.7950000000009823
3181,4571.14,2.130000000000109
3182,4572.56,0.6749999999997272
3183,4573.01,2.3099999999999454
3184,4574.55,0.794999999999618
3185,4575.08,2.4000000000005457
3186,4576.68,0.5100000000002183
3187,4577.02,2.25
3188,4578.52,0.9449999999987995
3189,4579.15,2.1000000000008185
3190,4580.55,0.794999999999618
3191,4581.08,2.25
3192,4582.58,0.7800000000006548
3193,4583.1,2.130000000000109
3194,4584.52,0.9149999999995089
3195,4585.13,2.0999999999994543
3196,4586.53,0.7800000000006548
3197,4587.05,2.2349999999996726
3198,4588.54,0.794999999999618
3199,4589.07,2.235000000001037
3200,4590.56,0.7799999999992906
3201,4591.08,2.2349999999996726
3202,4592.57,0.7800000000006548
3203,4593.09,2.3549999999995634
3204,4594.66,0.6450000000004366
3205,4595.09,2.219999999999345
3206,4596.57,0.7950000000009823
3207,4597.1,2.339999999999236
3208,4598.66,0.5250000000005457
3209,4599.01,2.3850000000002183
3210,4600.6,0.794999999999618
3211,4601.13,2.1149999999997817
3212,4602.54,0.7800000000006548
3213,4603.06,2.414999999999509
3214,4604.67,0.5250000000005457
3215,4605.02,2.4299999999998363
3216,4606.64,0.794999999999618
3217,4607.17,2.1599999999993997
3218,4608.61,0.6750000000010914
3219,4609.06,2.264999999998963
3220,4610.57,0.8099999999999454
3221,4611.11,2.1750000000010914
3222,4612.56,0.6749999999997272
3223,4613.01,2.4299999999998363
3224,4614.63,0.8099999999999454
3225,4615.17,2.0250000000005457
3226,4616.52,0.8099999999999454
3227,4617.06,2.1599999999993997
3228,4618.5,0.9450000000001637
3229,4619.13,2.1450000000004366
3230,4620.56,0.794999999999618
3231,4621.09,2.2799999999992906
3232,4622.61,0.6750000000010914
3233,4623.06,2.2799999999992906
3234,4624.58,0.75
3235,4625.08,2.130000000000109
3236,4626.5,0.8850000000002183
3237,4627.09,2.2349999999996726
3238,4628.58,0.705000000000382
3239,4629.05,2.205000000000382
3240,4630.52,0.8249999999989086
3241,4631.07,2.205000000000382
3242,4632.54,0.794999999999618
3243,4633.07,2.160000000000764
3244,4634.51,0.839999999999236
3245,4635.07,2.460000000000491
3246,4636.71,0.49499999999989086
3247,4637.04,2.280000000000655
3248,4638.56,0.7049999999990177
3249,4639.03,2.2650000000003274
3250,4640.54,0.7200000000007094
3251,4641.02,2.3249999999989086
3252,4642.57,0.7200000000007094
3253,4643.05,2.1900000000000546
3254,4644.51,0.6599999999993997
3255,4644.95,2.415000000000873
3256,4646.56,0.7649999999989632
3257,4647.07,2.235000000001037
3258,4648.56,0.7799999999992906
3259,4649.08,2.1900000000000546
3260,4650.54,0.7800000000006548
3261,4651.06,2.174999999999727
3262,4652.51,0.7799999999992906
3263,4653.03,2.325000000000273
3264,4654.58,0.6450000000004366
3265,4655.01,2.2650000000003274
3266,4656.52,0.7649999999989632
3267,4657.03,2.235000000001037
3268,4658.52,0.7349999999996726
3269,4659.01,2.2799999999992906
3270,4660.53,0.75
3271,4661.03,2.25
3272,4662.53,0.7200000000007094
3273,4663.01,2.2349999999996726
3274,4664.5,0.7650000000003274
3275,4665.01,2.25
3276,4666.51,0.7650000000003274
3277,4667.02,2.2349999999996726
3278,4668.51,0.7650000000003274
3279,4669.02,2.219999999999345
3280,4670.5,0.7800000000006548
3281,4671.02,2.2799999999992906
3282,4672.54,0.7200000000007094
3283,4673.02,2.2799999999992906
3284,4674.54,0.705000000000382
3285,4675.01,2.325000000000273
3286,4676.56,0.7049999999990177
3287,4677.03,2.2950000000009823
3288,4678.56,0.7649999999989632
3289,4679.07,2.2650000000003274
3290,4680.58,0.7349999999996726
3291,4681.07,2.205000000000382
3292,4682.54,0.7349999999996726
3293,4683.03,2.3099999999999454
3294,4684.57,0.6750000000010914
3295,4685.02,2.3099999999999454
3296,4686.56,0.6749999999997272
3297,4687.01,2.414999999999509
3298,4688.62,0.6300000000001091
3299,4689.04,2.205000000000382
3300,4690.51,0.794999999999618
3301,4691.04,2.280000000000655
3302,4692.56,0.7799999999992906
3303,4693.08,2.205000000000382
3304,4694.55,0.705000000000382
3305,4695.02,2.4749999999994543
3306,4696.67,0.5850000000004911
3307,4697.06,2.264999999998963
3308,4698.57,0.7650000000003274
3309,4699.08,2.130000000000109
3310,4700.5,0.794999999999618
3311,4701.03,2.2650000000003274
3312,4702.54,0.705000000000382
3313,4703.01,2.25
3314,4704.51,0.839999999999236
3315,4705.07,2.25
3316,4706.57,0.705000000000382
3317,4707.04,2.25
3318,4708.54,0.7650000000003274
3319,4709.05,2.174999999999727
3320,4710.5,0.7800000000006548
3321,4711.02,2.294999999999618
3322,4712.55,0.705000000000382
3323,4713.02,2.3099999999999454
3324,4714.56,0.7649999999989632
3325,4715.07,2.1900000000000546
3326,4716.53,0.7650000000003274
3327,4717.04,2.2349999999996726
3328,4718.53,0.8850000000002183
3329,4719.12,2.160000000000764
3330,4720.56,0.7649999999989632
3331,4721.07,2.25
3332,4722.57,0.8250000000002728
3333,4723.12,2.160000000000764
3334,4724.56,0.7649999999989632
3335,4725.07,2.2650000000003274
3336,4726.58,0.6300000000001091
3337,4727.0,2.3549999999995634
3338,4728.57,0.75
3339,4729.07,2.160000000000764
3340,4730.51,0.8250000000002728
3341,4731.06,2.264999999998963
3342,4732.57,0.7650000000003274
3343,4733.08,2.294999999999618
3344,4734.61,0.6750000000010914
3345,4735.06,2.219999999999345
3346,4736.54,0.705000000000382
3347,4737.01,2.325000000000273
3348,4738.56,0.6900000000000546
3349,4739.02,2.294999999999618
3350,4740.55,0.6900000000000546
3351,4741.01,2.3999999999991815
3352,4742.61,0.7200000000007094
3353,4743.09,2.414999999999509
3354,4744.7,0.5850000000004911
3355,4745.09,2.4299999999998363
3356,4746.71,0.46500000000060027
3357,4747.02,2.384999999998854
3358,4748.61,0.7800000000006548
3359,4749.13,2.1450000000004366
3360,4750.56,0.794999999999618
3361,4751.09,2.130000000000109
3362,4752.51,0.794999999999618
3363,4753.04,2.369999999999891
3364,4754.62,0.8099999999999454
3365,4755.16,2.130000000000109
3366,4756.58,0.6450000000004366
3367,4757.01,2.5349999999993997
3368,4758.7,0.5250000000005457
3369,4759.05,2.2349999999996726
3370,4760.54,0.8099999999999454
3371,4761.08,2.369999999999891
3372,4762.66,0.5250000000005457
3373,4763.01,2.3850000000002183
3374,4764.6,0.794999999999618
3375,4765.13,2.0999999999994543
3376,4766.53,0.9299999999998363
3377,4767.15,2.115000000001146
3378,4768.56,0.6749999999997272
3379,4769.01,2.459999999999127
3380,4770.65,0.5250000000005457
3381,4771.0,2.4749999999994543
3382,4772.65,0.5550000000012005
3383,4773.02,2.5799999999990177
3384,4774.74,0.5400000000008731
3385,4775.1,2.264999999998963
3386,4776.61,0.8099999999999454
3387,4777.15,2.115000000001146
3388,4778.56,0.8099999999999454
3389,4779.1,2.0999999999994543
3390,4780.5,0.9299999999998363
3391,4781.12,2.1149999999997817
3392,4782.53,0.8099999999999454
3393,4783.07,2.25
3394,4784.57,0.7800000000006548
3395,4785.09,2.294999999999618
3396,4786.62,0.794999999999618
3397,4787.15,2.415000000000873
3398,4788.76,0.5249999999991815
3399,4789.11,2.160000000000764
3400,4790.55,0.794999999999618
3401,4791.08,2.1450000000004366
3402,4792.51,0.794999999999618
3403,4793.04,2.414999999999509
3404,4794.65,0.5400000000008731
3405,4795.01,2.4450000000001637
3406,4796.64,0.5399999999995089
3407,4797.0,2.3400000000006003
3408,4798.56,0.8099999999999454
3409,4799.1,2.3249999999989086
3410,4800.65,0.5700000000001637
3411,4801.03,2.4450000000001637
3412,4802.66,0.5549999999998363
3413,4803.03,2.4450000000001637
3414,4804.66,0.5400000000008731
3415,4805.02,2.294999999999618
3416,4806.55,0.9450000000001637
3417,4807.18,1.9949999999998909
3418,4808.51,0.8099999999999454
3419,4809.05,2.2799999999992906
3420,4810.57,0.7950000000009823
3421,4811.1,2.25
3422,4812.6,0.8099999999999454
3423,4813.14,2.130000000000109
3424,4814.56,0.9149999999995089
3425,4815.17,2.1450000000004366
3426,4816.6,0.7799999999992906
3427,4817.12,2.3850000000002183
3428,4818.71,0.5250000000005457
3429,4819.06,2.294999999999618
3430,4820.59,0.8099999999999454
3431,4821.13,2.219999999999345
3432,4822.61,0.8250000000002728
3433,4823.16,2.2349999999996726
3434,4824.65,0.6300000000001091
3435,4825.07,2.1450000000004366
3436,4826.5,0.9149999999995089
3437,4827.11,2.1000000000008185
3438,4828.51,0.7799999999992906
3439,4829.03,2.2200000000007094
3440,4830.51,0.8699999999998909
3441,4831.09,2.1599999999993997
3442,4832.53,0.8400000000006003
3443,4833.09,2.2650000000003274
3444,4834.6,0.8549999999995634
3445,4835.17,1.9949999999998909
3446,4836.5,0.75
3447,4837.0,2.280000000000655
3448,4838.52,0.7199999999993452
3449,4839.0,2.294999999999618
3450,4840.53,0.7350000000010368
3451,4841.02,2.2799999999992906
3452,4842.54,0.705000000000382
3453,4843.01,2.25
3454,4844.51,0.8099999999999454
3455,4845.05,2.219999999999345
3456,4846.53,0.7350000000010368
3457,4847.02,2.2349999999996726
3458,4848.51,0.7650000000003274
3459,4849.02,2.219999999999345
3460,4850.5,0.8099999999999454
3461,4851.04,2.2650000000003274
3462,4852.55,0.7199999999993452
3463,4853.03,2.25
3464,4854.53,0.75
3465,4855.03,2.2200000000007094
3466,4856.51,0.7650000000003274
3467,4857.02,2.2349999999996726
3468,4858.51,0.8099999999999454
3469,4859.05,2.174999999999727
3470,4860.5,0.7650000000003274
3471,4861.01,2.2799999999992906
3472,4862.53,0.7200000000007094
3473,4863.01,2.2650000000003274
3474,4864.52,0.7799999999992906
3475,4865.04,2.205000000000382
3476,4866.51,0.839999999999236
3477,4867.07,2.25
3478,4868.57,0.7200000000007094
3479,4869.05,2.3999999999991815
3480,4870.65,0.7200000000007094
3481,4871.13,2.085000000000491
3482,4872.52,0.7649999999989632
3483,4873.03,2.3550000000009277
3484,4874.6,0.6900000000000546
3485,4875.06,2.294999999999618
3486,4876.59,0.8850000000002183
3487,4877.18,2.0100000000002183
3488,4878.52,0.884999999998854
3489,4879.11,2.4450000000001637
3490,4880.74,0.5700000000001637
3491,4881.12,2.3099999999999454
3492,4882.66,0.8099999999999454
3493,4883.2,2.2349999999996726
3494,4884.69,0.5700000000001637
3495,4885.07,2.160000000000764
3496,4886.51,0.8549999999995634
3497,4887.08,2.3099999999999454
3498,4888.62,0.8250000000002728
3499,4889.17,2.2799999999992906
3500,4890.69,0.5550000000012005
3501,4891.06,2.219999999999345
3502,4892.54,0.8549999999995634
3503,4893.11,2.115000000001146
3504,4894.52,0.8249999999989086
3505,4895.07,2.4299999999998363
3506,4896.69,0.7200000000007094
3507,4897.17,2.130000000000109
3508,4898.59,0.8549999999995634
3509,4899.16,2.1149999999997817
3510,4900.57,0.8400000000006003
3511,4901.13,2.3549999999995634
3512,4902.7,0.5549999999998363
3513,4903.07,2.369999999999891
3514,4904.65,0.5400000000008731
3515,4905.01,2.505000000000109
3516,4906.68,0.7049999999990177
3517,4907.15,2.280000000000655
3518,4908.67,0.5549999999998363
3519,4909.04,2.2650000000003274
3520,4910.55,0.8250000000002728
3521,4911.1,2.130000000000109
3522,4912.52,0.8549999999995634
3523,4913.09,2.2650000000003274
3524,4914.6,2.9099999999993997
3525,4916.54,0.75
3526,4917.04,2.205000000000382
3527,4918.51,0.8850000000002183
3528,4919.1,2.219999999999345
3529,4920.58,0.8400000000006003
3530,4921.14,2.1599999999993997
3531,4922.58,0.6749999999997272
3532,4923.03,2.325000000000273
3533,4924.58,0.8099999999999454
3534,4925.12,2.2200000000007094
3535,4926.6,0.7049999999990177
3536,4927.07,2.415000000000873
3537,4928.68,0.6149999999997817
3538,4929.09,2.1599999999993997
3539,4930.53,0.9150000000008731
3540,4931.14,2.2049999999990177
3541,4932.61,0.8400000000006003
3542,4933.17,2.0700000000001637
3543,4934.55,1.0349999999993997
3544,4935.24,2.0250000000005457
3545,4936.59,0.8699999999998909
3546,4937.17,2.294999999999618
3547,4938.7,0.5850000000004911
3548,4939.09,2.1450000000004366
3549,4940.52,0.7349999999996726
3550,4941.01,2.2349999999996726
3551,4942.5,0.7650000000003274
3552,4943.01,2.2349999999996726
3553,4944.5,0.7650000000003274
3554,4945.01,2.2650000000003274
3555,4946.52,0.7199999999993452
3556,4947.0,2.294999999999618
3557,4948.53,0.7200000000007094
3558,4949.01,2.2349999999996726
3559,4950.5,0.8099999999999454
3560,4951.04,2.2349999999996726
3561,4952.53,0.7350000000010368
3562,4953.02,2.264999999998963
3563,4954.53,0.7350000000010368
3564,4955.02,2.2349999999996726
3565,4956.51,0.75
3566,4957.01,2.2650000000003274
3567,4958.52,0.7199999999993452
3568,4959.0,2.280000000000655
3569,4960.52,0.7349999999996726
3570,4961.01,2.294999999999618
3571,4962.54,0.7800000000006548
3572,4963.06,2.2049999999990177
3573,4964.53,0.7200000000007094
3574,4965.01,2.25
3575,4966.51,0.7650000000003274
3576,4967.02,2.3999999999991815
3577,4968.62,0.6000000000008185
3578,4969.02,2.3099999999999454
3579,4970.56,0.7649999999989632
3580,4971.07,2.2950000000009823
3581,4972.6,0.794999999999618
3582,4973.13,2.085000000000491
3583,4974.52,0.9899999999997817
3584,4975.18,2.039999999999509
3585,4976.54,0.8850000000002183
3586,4977.13,2.1900000000000546
3587,4978.59,0.8549999999995634
3588,4979.16,2.085000000000491
3589,4980.55,0.9749999999994543
3590,4981.2,2.174999999999727
3591,4982.65,0.5700000000001637
3592,4983.03,2.2950000000009823
3593,4984.56,0.7799999999992906
3594,4985.08,2.1900000000000546
3595,4986.54,0.8549999999995634
3596,4987.11,2.235000000001037
3597,4988.6,0.794999999999618
3598,4989.13,2.3999999999991815
3599,4990.73,0.5400000000008731
3600,4991.09,2.219999999999345
3601,4992.57,0.8250000000002728
3602,4993.12,2.325000000000273
3603,4994.67,0.9899999999997817
3604,4995.33,1.9949999999998909
3605,4996.66,0.5850000000004911
3606,4997.05,2.25
3607,4998.55,0.8699999999998909
3608,4999.13,2.1450000000004366
3609,5000.56,0.7199999999993452
3610,5001.04,2.280000000000655
3611,5002.56,0.8699999999998909
3612,5003.14,2.130000000000109
3613,5004.56,2.9849999999996726
3614,5006.55,0.6900000000000546
3615,5007.01,2.459999999999127
3616,5008.65,0.5850000000004911
3617,5009.04,2.2349999999996726
3618,5010.53,0.8099999999999454
3619,5011.07,2.744999999999891
3620,5012.9,0.31500000000005457
3621,5013.11,2.130000000000109
3622,5014.53,0.7200000000007094
3623,5015.01,2.3099999999999454
3624,5016.55,0.6900000000000546
3625,5017.01,2.549999999999727
3626,5018.71,0.5999999999994543
3627,5019.11,2.115000000001146
3628,5020.52,0.9149999999995089
3629,5021.13,2.25
3630,5022.63,0.5850000000004911
3631,5023.02,2.504999999998745
3632,5024.69,0.4950000000012551
3633,5025.02,2.459999999999127
3634,5026.66,0.6149999999997817
3635,5027.07,2.580000000000382
3636,5028.79,0.5850000000004911
3637,5029.18,2.2049999999990177
3638,5030.65,0.6000000000008185
3639,5031.05,2.205000000000382
3640,5032.52,0.8099999999999454
3641,5033.06,2.2349999999996726
3642,5034.55,0.75
3643,5035.05,2.1900000000000546
3644,5036.51,0.794999999999618
3645,5037.04,2.325000000000273
3646,5038.59,0.7199999999993452
3647,5039.07,2.235000000001037
3648,5040.56,0.7349999999996726
3649,5041.05,2.2349999999996726
3650,5042.54,0.7200000000007094
3651,5043.02,2.2799999999992906
3652,5044.54,0.8250000000002728
3653,5045.09,2.205000000000382
3654,5046.56,0.7799999999992906
3655,5047.08,2.2349999999996726
3656,5048.57,0.6900000000000546
3657,5049.03,2.205000000000382
3658,5050.5,0.7800000000006548
3659,5051.02,2.294999999999618
3660,5052.55,0.7199999999993452
3661,5053.03,2.2950000000009823
3662,5054.56,0.794999999999618
3663,5055.09,2.1450000000004366
3664,5056.52,0.7799999999992906
3665,5057.04,2.280000000000655
3666,5058.56,0.7199999999993452
3667,5059.04,2.3549999999995634
3668,5060.61,0.6900000000000546
3669,5061.07,2.160000000000764
3670,5062.51,0.8850000000002183
3671,5063.1,2.2049999999990177
3672,5064.57,0.705000000000382
3673,5065.04,2.3400000000006003
3674,5066.6,0.6449999999990723
3675,5067.03,2.325000000000273
3676,5068.58,0.705000000000382
3677,5069.05,2.2650000000003274
3678,5070.56,0.7049999999990177
3679,5071.03,2.325000000000273
3680,5072.58,0.6300000000001091
3681,5073.0,2.25
3682,5074.5,0.7800000000006548
3683,5075.02,2.3099999999999454
3684,5076.56,0.7799999999992906
3685,5077.08,2.1900000000000546
3686,5078.54,0.705000000000382
3687,5079.01,2.3999999999991815
3688,5080.61,0.6900000000000546
3689,5081.07,2.1900000000000546
3690,5082.53,0.8400000000006003
3691,5083.09,2.1450000000004366
3692,5084.52,0.7799999999992906
3693,5085.04,2.2349999999996726
3694,5086.53,0.8400000000006003
3695,5087.09,2.219999999999345
3696,5088.57,0.705000000000382
3697,5089.04,2.280000000000655
3698,5090.56,0.6900000000000546
3699,5091.02,2.219999999999345
3700,5092.5,0.7650000000003274
3701,5093.01,2.294999999999618
3702,5094.54,0.8250000000002728
3703,5095.09,2.339999999999236
3704,5096.65,0.5550000000012005
3705,5097.02,2.3549999999995634
3706,5098.59,0.7650000000003274
3707,5099.1,2.1900000000000546
3708,5100.56,0.7049999999990177
3709,5101.03,2.25
3710,5102.53,0.7200000000007094
3711,5103.01,2.2650000000003274
3712,5104.52,0.8099999999999454
3713,5105.06,2.25
3714,5106.56,0.7049999999990177
3715,5107.03,2.3400000000006003
3716,5108.59,0.6749999999997272
3717,5109.04,2.205000000000382
3718,5110.51,0.794999999999618
3719,5111.04,2.280000000000655
3720,5112.56,0.794999999999618
3721,5113.09,2.1599999999993997
3722,5114.53,0.8400000000006003
3723,5115.09,2.1450000000004366
3724,5116.52,0.8549999999995634
3725,5117.09,2.130000000000109
3726,5118.51,0.8250000000002728
3727,5119.06,2.174999999999727
3728,5120.51,0.7349999999996726
3729,5121.0,2.369999999999891
3730,5122.58,0.794999999999618
3731,5123.11,2.1900000000000546
3732,5124.57,0.7350000000010368
3733,5125.06,2.25
3734,5126.56,0.6599999999993997
3735,5127.0,2.25
3736,5128.5,0.7800000000006548
3737,5129.02,2.3099999999999454
3738,5130.56,0.6900000000000546
3739,5131.02,2.339999999999236
3740,5132.58,0.6900000000000546
3741,5133.04,2.369999999999891
3742,5134.62,0.705000000000382
3743,5135.09,2.2650000000003274
3744,5136.6,0.5999999999994543
3745,5137.0,2.325000000000273
3746,5138.55,0.8549999999995634
3747,5139.12,2.085000000000491
3748,5140.51,0.7650000000003274
3749,5141.02,2.25
3750,5142.52,0.8249999999989086
3751,5143.07,2.1750000000010914
3752,5144.52,0.8099999999999454
3753,5145.06,2.1900000000000546
3754,5146.52,0.839999999999236
3755,5147.08,2.2349999999996726
3756,5148.57,0.6900000000000546
3757,5149.03,2.2950000000009823
3758,5150.56,0.8999999999991815
3759,5151.16,2.1900000000000546
3760,5152.62,0.5700000000001637
3761,5153.0,2.2650000000003274
3762,5154.51,0.8099999999999454
3763,5155.05,2.1900000000000546
3764,5156.51,0.7650000000003274
3765,5157.02,2.339999999999236
3766,5158.58,0.8250000000002728
3767,5159.13,2.1900000000000546
3768,5160.59,0.6599999999993997
3769,5161.03,2.25
3770,5162.53,0.8400000000006003
3771,5163.09,2.1149999999997817
3772,5164.5,0.7650000000003274
3773,5165.01,2.2799999999992906
3774,5166.53,0.8699999999998909
3775,5167.11,2.2650000000003274
3776,5168.62,0.6000000000008185
3777,5169.02,2.2799999999992906
3778,5170.54,0.7200000000007094
3779,5171.02,2.2349999999996726
3780,5172.51,0.8250000000002728
3781,5173.06,2.1900000000000546
3782,5174.52,0.794999999999618
3783,5175.05,2.2349999999996726
3784,5176.54,0.7650000000003274
3785,5177.05,2.205000000000382
3786,5178.52,0.7349999999996726
3787,5179.01,2.2349999999996726
3788,5180.5,0.8099999999999454
3789,5181.04,2.2349999999996726
3790,5182.53,0.7800000000006548
3791,5183.05,2.325000000000273
3792,5184.6,0.8249999999989086
3793,5185.15,2.115000000001146
3794,5186.56,0.6749999999997272
3795,5187.01,2.0249999999991815
3796,5188.36,1.3049999999998363
3797,5189.23,2.0250000000005457
3798,5190.58,0.6900000000000546
3799,5191.04,2.3099999999999454
3800,5192.58,0.7650000000003274
3801,5193.09,2.1599999999993997
3802,5194.53,0.7200000000007094
3803,5195.01,2.4899999999997817
3804,5196.67,0.5700000000001637
3805,5197.05,2.1900000000000546
3806,5198.51,0.75
3807,5199.01,2.2349999999996726
3808,5200.5,0.7650000000003274
3809,5201.01,2.2650000000003274
3810,5202.52,0.7799999999992906
3811,5203.04,2.1900000000000546
3812,5204.5,0.7650000000003274
3813,5205.01,2.25
3814,5206.51,0.7349999999996726
3815,5207.0,2.280000000000655
3816,5208.52,0.75
3817,5209.02,2.2349999999996726
3818,5210.51,0.75
3819,5211.01,2.2650000000003274
3820,5212.52,0.7199999999993452
3821,5213.0,2.25
3822,5214.5,0.7650000000003274
3823,5215.01,2.25
3824,5216.51,0.75
3825,5217.01,2.25
3826,5218.51,0.7650000000003274
3827,5219.02,2.2349999999996726
3828,5220.51,0.7349999999996726
3829,5221.0,2.294999999999618
3830,5222.53,0.705000000000382
3831,5223.0,2.2650000000003274
3832,5224.51,0.7799999999992906
3833,5225.03,2.2200000000007094
3834,5226.51,0.8850000000002183
3835,5227.1,2.1599999999993997
3836,5228.54,0.7650000000003274
3837,5229.05,2.325000000000273
3838,5230.6,0.6300000000001091
3839,5231.02,2.339999999999236
3840,5232.58,0.75
3841,5233.08,2.1450000000004366
3842,5234.51,0.75
3843,5235.01,2.25
3844,5236.51,0.8250000000002728
3845,5237.06,2.25
3846,5238.56,0.7049999999990177
3847,5239.03,2.280000000000655
3848,5240.55,0.8549999999995634
3849,5241.12,2.085000000000491
3850,5242.51,0.8250000000002728
3851,5243.06,2.25
3852,5244.56,0.7049999999990177
3853,5245.03,2.325000000000273
3854,5246.58,0.6749999999997272
3855,5247.03,2.235000000001037
3856,5248.52,0.8249999999989086
3857,5249.07,2.25
3858,5250.57,0.7350000000010368
3859,5251.06,2.2349999999996726
3860,5252.55,0.75
3861,5253.05,2.294999999999618
3862,5254.58,0.9299999999998363
3863,5255.2,2.040000000000873
3864,5256.56,0.7799999999992906
3865,5257.08,2.325000000000273
3866,5258.63,0.6300000000001091
3867,5259.05,2.219999999999345
3868,5260.53,0.8250000000002728
3869,5261.08,2.174999999999727
3870,5262.53,0.9299999999998363
3871,5263.15,2.1450000000004366
3872,5264.58,0.6300000000001091
3873,5265.0,2.3400000000006003
3874,5266.56,0.7049999999990177
3875,5267.03,2.235000000001037
3876,5268.52,0.8099999999999454
3877,5269.06,3269.2199999999993
3878,7448.54,5000.720000000001
3879,7449.02,2.339999999999236
3880,7450.58,0.7349999999996726
3881,7451.07,2.280000000000655
3882,7452.59,0.7650000000003274
3883,7453.1,2.2049999999990177
3884,7454.57,0.8699999999998909
3885,7455.15,2.1750000000010914
3886,7456.6,0.6599999999993997
3887,7457.04,2.1900000000000546
3888,7458.5,0.9000000000005457
3889,7459.1,2.1449999999990723
3890,7460.53,0.7200000000007094
3891,7461.01,2.325000000000273
3892,7462.56,0.6599999999993997
3893,7463.0,2.25
3894,7464.5,0.75
3895,7465.0,2.25
3896,7466.5,0.7800000000006548
3897,7467.02,2.219999999999345
3898,7468.5,0.7650000000003274
3899,7469.01,2.2799999999992906
3900,7470.53,0.7350000000010368
3901,7471.02,2.294999999999618
3902,7472.55,0.6749999999997272
3903,7473.0,2.4450000000001637
3904,7474.63,0.7650000000003274
3905,7475.14,2.1449999999990723
3906,7476.57,0.660000000000764
3907,7477.01,2.25
3908,7478.51,0.8250000000002728
3909,7479.06,2.25
3910,7480.56,0.7199999999993452
3911,7481.04,2.280000000000655
3912,7482.56,0.7199999999993452
3913,7483.04,2.2200000000007094
3914,7484.52,0.8099999999999454
3915,7485.06,2.264999999998963
3916,7486.57,0.6900000000000546
3917,7487.03,2.2650000000003274
3918,7488.54,0.8250000000002728
3919,7489.09,2.2799999999992906
3920,7490.61,0.75
3921,7491.11,2.1000000000008185
3922,7492.51,0.8099999999999454
3923,7493.05,2.219999999999345
3924,7494.53,0.8400000000006003
3925,7495.09,2.1599999999993997
3926,7496.53,0.8250000000002728
3927,7497.08,2.3400000000006003
3928,7498.64,0.5999999999994543
3929,7499.04,2.369999999999891
3930,7500.62,0.75
3931,7501.12,2.1149999999997817
3932,7502.53,0.7950000000009823
3933,7503.06,2.219999999999345
3934,7504.54,0.6900000000000546
3935,7505.0,2.2650000000003274
3936,7506.51,0.7799999999992906
3937,7507.03,2.3099999999999454
3938,7508.57,0.6750000000010914
3939,7509.02,2.294999999999618
3940,7510.55,0.8099999999999454
3941,7511.09,2.1599999999993997
3942,7512.53,0.7350000000010368
3943,7513.02,2.414999999999509
3944,7514.63,0.6900000000000546
3945,7515.09,2.1599999999993997
3946,7516.53,0.8550000000009277
3947,7517.1,2.1900000000000546
3948,7518.56,0.7199999999993452
3949,7519.04,2.3400000000006003
3950,7520.6,0.7349999999996726
3951,7521.09,2.1599999999993997
3952,7522.53,0.7350000000010368
3953,7523.02,2.294999999999618
3954,7524.55,0.705000000000382
3955,7525.02,2.264999999998963
3956,7526.53,0.7800000000006548
3957,7527.05,2.294999999999618
3958,7528.58,0.6900000000000546
3959,7529.04,2.205000000000382
