,BIT_DEPTH,cost
0,105.22,1048.8481625709703
1,106.11,4.551977998730725
2,107.01,5.033995098039197
3,107.92,5.587276181138579
4,108.93,464.13115999754893
5,192.83,31.88476932294746
6,194.51,39.81628624306006
7,196.56,6.3290723210904805
8,197.03,19.823044287309386
9,198.52,6.4703092783502605
10,199.01,19.27789473684212
11,200.54,57.96290311047575
12,205.02,55.885601131541605
13,208.56,6.5469963247577825
14,209.09,18.696639661852867
15,210.55,6.3329292929291805
16,211.06,25.32692767086931
17,213.12,18.07149627623547
18,214.57,6.743055644901925
19,215.13,17.095010792476195
20,216.59,21.519508654383113
21,218.55,8.413678506923421
22,219.28,15.984801776086307
23,220.62,5.765529667598741
24,221.11,22.621297134238073
25,223.07,17.16194808982222
26,224.59,5.6432392181196445
27,225.07,17.238307952622698
28,226.63,5.100060290490534
29,227.1,39.71536311318166
30,230.76,21.32979357798161
31,232.67,5.431852502195113
32,233.15,15.59714367323628
33,234.55,22.906255259466867
34,236.63,23.60857473928151
35,238.73,41.76239444147511
36,242.64,21.629302065885277
37,244.61,21.05833080424878
38,246.65,5.166806282722309
39,247.14,15.661740750599174
40,248.61,22.56271109855964
41,250.65,3.813417721518831
42,251.01,37.41374805598778
43,254.58,5.363774765380509
44,255.09,17.530893032384583
45,256.82,3.510809716599519
46,257.16,40.787348178137535
47,261.11,35.87277167277179
48,264.66,100.30857416726539
49,274.7,3.5497046413503455
50,275.06,14.064933880528844
51,276.51,5.718378870674261
52,277.1,16.54226379794151
53,278.78,17.704297832233944
54,280.57,10.934311926605448
55,281.01,29.30255192878286
56,282.03,49.405714285714865
57,284.56,6.645113340765515
58,285.06,22.54000000000019
59,286.67,5.6818941504179445
60,287.22,12.579270072992635
61,288.54,15.90518035838962
62,290.16,8.86315789473662
63,291.06,16.203982169390535
64,292.65,3.885721716515002
65,293.02,15.249276807980142
66,294.51,5.770895334174046
67,295.07,14.484814814814992
68,296.55,26.84418286915358
69,299.09,20.773147799924935
70,300.64,6.31339025062011
71,301.22,14.81515799045211
72,302.75,3.7846007151370227
73,303.13,8.906736749890474
74,304.07,9.829101256817733
75,305.06,9.247841369986283
76,306.02,9.679898312918969
77,307.01,13.64253574833179
78,308.38,6.850393131495509
79,309.09,16.010764055742662
80,310.69,3.9174971031283983
81,311.09,15.071954566966781
82,312.61,4.771947718020057
83,313.12,13.164582317748682
84,314.5,6.122005931517856
85,315.07,18.675430881981324
86,316.88,2.3169902912620044
87,317.08,15.571455696202822
88,318.55,20.732628611698043
89,320.65,6.102062522458133
90,321.12,16.323380281690113
91,322.56,6.259331458918766
92,323.09,15.898633938100415
93,324.58,5.557753357753473
94,325.13,14.416180977864334
95,326.56,5.849150743099909
96,327.11,15.275098133077755
97,328.64,3.6123190410327783
98,329.01,12.927793427230068
99,330.32,7.663333333333152
100,331.09,5.795025617140508
101,331.68,13.054739084131844
102,333.08,14.558804576231791
103,334.56,25.60005799202583
104,336.52,6.393153244130317
105,337.14,13.732330397524354
106,338.52,18.572201365187798
107,340.51,5.982392566782945
108,341.12,13.829383517196348
109,342.59,5.26797385620915
110,343.09,18.93525540582916
111,344.69,7.415865713397522
112,345.32,12.691361063253753
113,346.57,5.630669825544043
114,347.17,12.303005181346922
115,348.51,10.592139820500961
116,349.18,19.916538029224547
117,350.67,3.953070211882074
118,351.1,13.204898602086683
119,352.58,3.993207866356587
120,353.01,28.16436301661679
121,356.03,36.959776919777624
122,358.54,5.990931227376843
123,359.03,17.275309842041416
124,360.52,7.161362229102327
125,361.13,16.544901138406203
126,362.57,6.037387185240914
127,363.16,14.201622020152142
128,364.56,12.683535253227344
129,365.0,33.682269503546344
130,366.55,6.110317823544109
131,367.14,13.450677216662832
132,368.51,14.719621451104397
133,370.1,23.315503110919956
134,372.59,10.30443368828724
135,373.23,17.77243644896313
136,374.52,28.486950409996
137,376.59,22.93262154432812
138,378.51,5.255352579271472
139,379.04,24.34584958217274
140,380.6,7.359999999999688
141,381.19,14.575348730848386
142,382.69,3.9546967071058687
143,383.11,12.20690130068848
144,384.5,4.89081081081064
145,385.02,11.855820416889511
146,386.13,25.933793103448224
147,388.51,5.300003986446369
148,389.1,13.83386331938602
149,390.51,5.405994550408719
150,391.01,18.66405975966248
151,392.55,6.692062868369029
152,393.21,15.059459459459825
153,394.61,5.6174410774409775
154,395.12,10.390925507900652
155,396.06,10.057616580310667
156,397.02,14.437495395948611
157,398.5,7.076156802459399
158,399.02,22.570902111324717
159,400.68,3.846150832517094
160,401.06,15.998213866039999
161,402.68,3.661566296200212
162,403.03,16.047682494684665
163,404.65,3.763386818069659
164,405.02,15.442453987730083
165,406.58,9.414060860440907
166,407.13,20.414213504337738
167,408.65,3.565841584158648
168,409.0,16.860389105058587
169,410.54,6.793673110720177
170,411.14,14.963296258847201
171,412.59,19.556194243023533
172,414.65,17.884743935310105
173,416.51,28.955990602976037
174,418.61,5.714502369667861
175,419.15,13.524703185881695
176,420.54,4.683016069221052
177,421.0,16.176332849540536
178,422.61,6.010541928122812
179,423.15,13.905208526413501
180,424.57,6.1583499667332005
181,425.07,16.476885813149092
182,426.54,4.895537982266477
183,427.03,10.208501026694234
184,428.01,10.625811163275856
185,429.02,18.237092084006356
186,430.53,6.439092920354329
187,431.12,16.03984009137633
188,432.56,5.844842166232057
189,433.08,16.196396206533507
190,434.61,5.582784129118891
191,435.06,12.453862045984557
192,436.07,13.348337182448011
193,437.26,3.6049055507119254
194,437.58,34.401732513901315
195,440.62,5.197503714710159
196,441.13,10.091617933723198
197,442.13,11.210335051546473
198,443.06,14.076255707762447
199,444.51,7.235589941973195
200,445.11,14.561643835616438
201,446.61,5.135128939827851
202,447.07,19.179070294784783
203,448.8,20.08348569901091
204,450.68,19.04808437576645
205,452.56,6.457327619789232
206,453.03,19.169707221861266
207,454.61,6.9086075949365195
208,455.19,14.987813319349932
209,456.61,5.700718336483472
210,457.09,18.135922330097088
211,458.59,4.620701565029755
212,459.02,17.39247293921767
213,460.61,4.5266117304894635
214,461.06,13.447586206896311
215,462.59,28.960373831775915
216,464.76,4.230520368718458
217,465.13,5.052300061996361
218,465.56,16.62233580373139
219,467.16,13.28193898871707
220,468.6,3.7148987854248126
221,469.01,16.377301750772588
222,470.8,3.222108385009559
223,471.1,10.348745482704715
224,472.09,27.826583000570448
225,474.59,6.037467700258397
226,475.09,19.00562322140052
227,476.8,3.2237452779278066
228,477.1,15.374334323520932
229,478.53,7.637070161912136
230,479.09,18.120236098167375
231,480.63,4.824932432432263
232,481.15,9.23951635064603
233,482.0,11.089315068493175
234,483.06,15.786413949961812
235,484.59,6.201317790167493
236,485.19,8.456138613861224
237,486.02,24.57960657067565
238,488.73,5.929090909090866
239,489.36,11.412448061683168
240,490.58,4.7569475077194525
241,491.08,14.508157894737124
242,492.61,4.425374363944732
243,493.05,15.380839656044607
244,494.54,5.374943486019888
245,495.01,17.623938679245413
246,496.56,19.40771161305042
247,498.56,25.380445357999086
248,500.58,5.01667912439965
249,501.05,16.040160642570278
250,502.55,4.681659836065456
251,503.0,16.21798365122616
252,504.5,6.683584672435025
253,505.07,17.652963330029706
254,506.51,5.158958807177155
255,507.01,15.303397771207488
256,508.59,20.45647058823579
257,510.66,5.152983870967681
258,511.23,9.119148936169557
259,512.18,8.134385150812466
260,513.01,14.945313174946303
261,514.6,5.375498320268234
262,515.16,14.990162948107669
263,516.62,4.180272614621733
264,517.03,14.982280701754775
265,518.61,5.4735813718043245
266,519.14,17.602490716938476
267,520.72,4.253026467203631
268,521.1,18.26706155034767
269,522.85,5.3538790035581965
270,523.41,12.144998792562546
271,524.62,4.245652173913472
272,525.07,14.952954545454023
273,526.5,6.636760940756646
274,527.08,21.68561220692216
275,528.71,3.9156062333708506
276,529.0,21.831302944735143
277,530.55,7.435683453237277
278,531.06,31.56727272727325
279,533.27,14.122443729904072
280,534.59,7.332139500370132
281,535.31,12.195641089728127
282,536.5,15.472514177692254
283,537.06,27.39942148760338
284,538.68,3.955189599133946
285,539.1,13.737376833807105
286,540.55,5.6978508865628275
287,541.16,12.923419710263873
288,542.58,3.750597515282616
289,543.0,15.789975389663825
290,544.73,3.5462485373275388
291,545.09,15.637590361445236
292,546.65,4.006675031367489
293,547.04,17.059485697775003
294,548.56,6.859675475197884
295,549.0,24.721917124313528
296,550.5,4.994348099936678
297,551.04,14.33670329670321
298,552.55,5.2808398950131235
299,553.05,16.214789579158737
300,554.63,6.011336270190586
301,555.16,15.493222945003112
302,556.52,6.331713455953487
303,557.15,16.126484716157304
304,558.64,4.766953423263294
305,559.1,17.67071672354909
306,560.51,5.697139677239646
307,561.03,17.259258351210754
308,562.51,4.473336068937301
309,563.0,15.91037199124679
310,564.68,3.602046340903921
311,565.05,15.918359356793331
312,566.67,19.488970588235297
313,568.67,4.0182631903104955
314,569.11,15.21171047310913
315,570.79,1.921136738056346
316,571.0,14.123498744931656
317,572.6,4.174920835971502
318,573.05,14.247953443259092
319,574.66,4.5141133896265115
320,575.11,14.084861079738323
321,576.57,5.94838484980405
322,577.2,13.4855375027818
323,578.61,3.236986584107214
324,579.0,13.987536231883942
325,580.64,3.734240209856277
326,581.07,14.078796992481088
327,582.71,5.76585199886569
328,583.23,18.548045501551535
329,584.7,3.633484750161682
330,585.0,18.156207881210683
331,586.63,3.9296252465488104
332,587.07,14.32912590216446
333,588.66,4.114525316456021
334,589.12,13.524744051910869
335,590.71,3.548937828883057
336,591.11,14.37793553651608
337,592.69,4.700448610646077
338,593.07,22.496641326882866
339,594.85,2.118416006669613
340,595.08,13.759478778852603
341,596.67,5.211215700527102
342,597.28,12.907889828670612
343,598.65,3.781687189855275
344,599.09,14.133141256502029
345,600.66,3.8146859903381185
346,601.04,16.083482750528
347,602.67,4.000273811852546
348,603.12,13.466889352818054
349,604.66,4.0431050228315515
350,605.1,13.3932132383739
351,606.55,5.62124906693277
352,607.1,15.040907486765022
353,608.56,4.986976744186963
354,609.08,15.8151642335766
355,610.71,3.6048825503354442
356,611.1,16.115028248587173
357,612.77,2.257577854671366
358,613.01,14.087872381318672
359,614.61,4.534873003403504
360,615.04,16.409399744572582
361,616.62,4.304147465437788
362,617.12,13.447336390162903
363,618.58,3.7188349514559484
364,619.0,14.055684647302655
365,620.53,5.43019955654098
366,621.16,14.894372478233382
367,622.76,4.2563318777296875
368,623.21,19.03401651287019
369,625.1,32.39181339352803
370,626.52,6.594375199745146
371,627.07,16.33152055188186
372,628.53,5.963126684636344
373,629.01,20.960474425500912
374,630.59,5.535372750641743
375,631.05,15.087529769445524
376,632.51,6.594591937069582
377,633.16,17.531391585761067
378,634.61,3.592825827022514
379,635.01,15.488267223382634
380,636.69,4.481346633416406
381,637.07,17.056314269208347
382,638.59,5.167213550315006
383,639.01,20.883764540006993
384,640.64,5.197838887092326
385,641.07,15.626190975864679
386,642.55,5.277016916846225
387,643.08,16.022560202787872
388,644.63,20.890611880303226
389,646.81,1.9398310978644417
390,647.0,16.516179659267337
391,648.58,5.184888514934286
392,649.14,14.276588524224243
393,650.63,5.4714893617026075
394,651.2,14.396158406449405
395,652.65,4.356290832455469
396,653.12,17.611840461316582
397,654.88,2.1483700064090567
398,655.11,13.995231624459294
399,656.64,4.296817003628489
400,657.05,17.058140154543274
401,658.65,4.451893265566097
402,659.08,16.749219858155925
403,660.59,5.8598881848668976
404,661.03,16.940952930984594
405,662.54,6.012841091492777
406,663.04,21.30949452103322
407,664.7,2.7930331350887867
408,665.0,16.52205563413444
409,666.67,3.8841954707984336
410,667.06,14.953054136874927
411,668.5,6.643417861080633
412,669.11,15.545267735797134
413,670.55,6.894397463003079
414,671.2,18.857118402281458
415,672.66,5.288675765399921
416,673.06,19.902263083452077
417,674.61,5.1926417370317814
418,675.06,16.243514407180964
419,676.7,4.5670571496316725
420,677.16,13.80928015564207
421,678.53,5.887886050192309
422,679.14,20.005350772889418
423,680.89,1.3918796992478433
424,681.05,15.384209022249935
425,682.74,3.715318890463368
426,683.15,17.9656250000006
427,685.2,13.957776703721468
428,686.59,4.677923950260921
429,687.14,15.492594686263173
430,688.54,5.759369894982394
431,689.05,20.72456481724992
432,691.01,16.751471801925327
433,692.55,5.91067395264106
434,693.06,23.00706365503178
435,695.09,15.65913783927529
436,696.56,5.58208641680651
437,697.12,14.504462809916848
438,698.68,4.119484638256024
439,699.14,11.853761703690065
440,700.52,6.1048830682881645
441,701.14,16.715230914232396
442,702.83,1.564495317377355
443,703.0,19.00183673469354
444,705.04,16.436078431373172
445,706.6,20.009822758797416
446,708.52,6.353266615345279
447,709.13,14.075334184759386
448,710.64,7.226776141029011
449,711.36,12.734279176200843
450,712.67,19.845491419656643
451,714.56,20.25528870720538
452,716.51,7.112756844673011
453,717.17,14.47473568281983
454,718.5,27.270023213825265
455,721.11,21.360971302428652
456,723.07,20.76241316270471
457,724.65,4.12966824644601
458,725.09,13.654247558301611
459,726.61,4.006132981729456
460,727.07,13.984737131342698
461,728.7,4.82022416955345
462,729.23,13.29933785400894
463,730.71,4.036358964946955
464,731.18,13.259886811867794
465,732.78,4.024721424468849
466,733.14,15.338452977183948
467,734.54,7.167027517387413
468,735.16,17.653476702508783
469,736.93,1.9024948875257983
470,737.15,13.332198581560789
471,738.71,4.3563223787168255
472,739.2,11.877247238742079
473,740.64,4.317582755966208
474,741.13,15.93019011406888
475,742.95,2.095933358576376
476,743.19,11.221735159816884
477,744.5,5.606891264877992
478,745.12,17.29044075558049
479,746.67,3.2636954087349084
480,747.01,14.578980975289399
481,748.55,5.534892915980815
482,749.11,14.869301976481664
483,750.56,5.886177384652481
484,751.15,16.019625468165508
485,752.58,5.734765251616331
486,753.1,17.21924191750209
487,754.67,6.099442508710954
488,755.4,6.311543125367035
489,756.11,23.78401826483952
490,758.56,21.460655737705657
491,761.21,15.099411764705057
492,762.54,5.74660998937383
493,763.08,34.878805107202126
494,766.56,5.587678618163695
495,767.09,15.444509124508414
496,768.67,6.709787234042807
497,769.39,11.089743178170309
498,770.62,3.948619180262104
499,771.06,15.19155087115513
500,772.68,3.4667213114753688
501,773.06,13.36020442930229
502,774.59,4.199942540528742
503,775.05,14.452655625357735
504,776.7,4.466942964278665
505,777.2,14.15479813004658
506,778.72,3.8680873898040034
507,779.16,31.500269497754516
508,782.62,3.949779507133208
509,783.04,15.564813112132883
510,784.77,5.920940424560735
511,785.38,12.213158633598592
512,786.62,38.063528395594474
513,790.67,18.941042138650104
514,792.63,5.5208460313855205
515,793.2,12.896523412443832
516,794.58,4.091575562700566
517,795.0,19.988103309120586
518,797.21,35.0216770062036
519,801.1,15.530530285174953
520,802.67,17.11244760342628
521,804.67,4.374620060790273
522,805.17,14.436672147320662
523,806.95,2.2046658304962494
524,807.21,14.224529058116307
525,808.95,2.0182469859889216
526,809.2,13.82415291618954
527,810.91,14.428791958356157
528,812.61,6.748764395861719
529,813.37,11.127412000729139
530,814.67,16.12242821985241
531,816.66,15.387359425739302
532,818.52,13.312546166760097
533,819.26,17.90945990180066
534,820.73,4.440225903614379
535,821.24,9.685454017986515
536,822.51,4.255096518130976
537,823.01,38.42574324324255
538,824.54,13.900465116278824
539,825.05,41.674285714285965
540,826.54,11.887066450567481
541,827.03,38.930695725064346
542,828.59,11.374468085104658
543,829.04,38.03805555555602
544,830.52,13.219191176470835
545,831.01,39.81424706943192
546,832.51,14.54228471001911
547,833.07,39.288075117369516
548,834.5,16.775413711583926
549,835.0,48.3728813559322
550,836.5,13.722451838878452
551,837.03,36.872863070539644
552,838.52,11.831071716357997
553,839.01,37.1085530546615
554,840.55,11.102556026651298
555,841.13,15.806975335352192
556,842.81,1.9644154634378013
557,843.01,13.697200811358943
558,844.52,5.809037800687328
559,845.14,13.029285010833494
560,846.6,4.147670935532327
561,847.04,13.734149947201857
562,848.52,5.747886033074195
563,849.16,13.381530924678755
564,850.63,3.5057194172818567
565,851.02,13.84619660739816
566,852.54,5.761110195109486
567,853.07,16.60682615629926
568,854.63,5.5995168067224
569,855.16,14.062731006160401
570,856.51,8.692863801139735
571,857.34,15.000287769783256
572,858.68,3.6562845849808703
573,859.1,12.854758018599593
574,860.57,5.845591216216174
575,861.2,13.687774672112798
576,862.66,5.988315228126266
577,863.33,12.46285714285646
578,864.66,3.5563187429854537
579,865.03,15.448299155609943
580,866.57,6.037546591176174
581,867.18,15.76468883205507
582,868.87,1.8392849719397237
583,869.07,14.080079491255391
584,870.64,3.6879598356914207
585,871.02,9.80879140964122
586,872.03,25.197576039006762
587,874.6,3.742058130400264
588,875.02,14.078790021607123
589,876.6,4.103822714681041
590,877.02,14.560610953523549
591,878.56,4.2441851106642305
592,879.03,13.854117160008197
593,880.54,5.657173828881025
594,881.18,13.352941176470587
595,882.68,3.8069734032232385
596,883.11,14.162472666105717
597,884.64,4.175458937198586
598,885.08,13.548309178743962
599,886.58,4.698618307426598
600,887.08,33.797647058823124
601,890.5,6.134476602651336
602,891.07,19.48296536796478
603,892.88,2.0804097311144294
604,893.08,15.221207601635614
605,894.6,8.12899049576134
606,895.38,11.568007755695358
607,896.53,5.563502935421433
608,897.08,15.292121212121028
609,898.6,6.580324825986032
610,899.23,13.235144325820645
611,900.71,4.004317892052232
612,901.14,13.598005865102397
613,902.67,4.171711273317443
614,903.13,13.135881333076558
615,904.62,3.8241039846577043
616,905.03,13.415964771817535
617,906.52,6.008137583892408
618,907.17,12.2355574043265
619,908.5,5.792387284437938
620,909.13,13.729799449468807
621,910.67,3.914325372525585
622,911.1,13.447679324893883
623,912.55,4.1510932475887525
624,913.01,27.794285714285383
625,914.53,5.745170998631716
626,915.06,16.6459016393445
627,916.66,3.8259227467817785
628,917.08,14.567949333915358
629,918.62,6.172213673334584
630,919.27,11.572913893929982
631,920.55,5.694796238245404
632,921.19,13.74962777080623
633,922.68,3.796079091292302
634,923.09,17.383206393982046
635,924.85,1.8498095787644662
636,925.06,17.448179129701057
637,926.94,2.014481546572057
638,927.18,12.061417819009735
639,928.62,4.24119180633155
640,929.11,15.369907304412074
641,930.89,2.0924663520363573
642,931.14,11.98458353550064
643,932.63,3.7964477713511
644,933.09,11.909641270925373
645,934.53,4.063726601408284
646,935.02,13.724035768517552
647,936.69,4.045177372961929
648,937.15,13.687057935459958
649,938.72,4.291055718475073
650,939.22,13.907292041183421
651,940.94,2.0676241462054863
652,941.18,12.701372860420854
653,942.69,5.138034188033763
654,943.24,12.197464212678849
655,944.5,5.191536620392351
656,945.02,15.339780639007746
657,946.56,9.891717504809904
658,947.47,11.153806193806275
659,948.71,4.265241217011113
660,949.23,11.940175724048308
661,950.71,4.192261985145098
662,951.22,10.412442996742378
663,952.51,4.3760205203370415
664,953.02,12.602153344209286
665,954.58,4.386191236473147
666,955.1,12.250808416389521
667,956.64,5.708548099005556
668,957.19,13.481066935077445
669,958.5,6.367575122292103
670,959.0,27.537722095671814
671,960.51,11.23906400550527
672,961.04,31.265706521739325
673,962.53,9.794015748031866
674,963.01,30.632833876221312
675,964.52,10.857427385891924
676,965.03,31.294937759336683
677,966.5,10.109620253164376
678,967.01,29.34993773349938
679,968.51,11.584515322076921
680,969.1,30.208674101610022
681,970.65,7.4906569343063065
682,971.04,26.973154362416107
683,972.54,11.146355685131617
684,973.14,28.21563981042654
685,974.64,6.797142857143115
686,975.0,28.847574517824988
687,976.55,9.250580046403712
688,977.05,27.348544490277643
689,978.51,10.736874205844257
690,979.05,28.304962920708604
691,980.6,5.228496113551367
692,981.02,18.29564142194814
693,982.58,6.972301740812255
694,983.09,25.523129445234943
695,985.07,21.26251781472646
696,986.6,5.011804844762594
697,987.0,15.268561183326169
698,988.59,45.566235741437204
699,989.05,159.31018867924573
700,990.67,4.483538230884401
701,991.06,17.056613210111884
702,992.64,3.760406228842116
703,993.03,14.231278825996522
704,994.57,5.5909226257606335
705,995.15,13.907861609003668
706,996.66,3.586565151185513
707,997.04,16.966901311249224
708,998.78,3.68450216450212
709,999.16,13.620164986250924
710,1000.56,5.695232774674517
711,1001.14,15.30907381288267
712,1002.69,3.664467947334212
713,1003.08,13.895165790074977
714,1004.51,5.554441222396109
715,1005.09,15.116109860422622
716,1006.66,4.146088918980528
717,1007.09,13.773058030862126
718,1008.55,11.419638554217771
719,1009.24,15.68202283849874
720,1010.53,5.344033018868235
721,1011.0,16.843588907014095
722,1012.56,6.538837405223913
723,1013.01,24.734918414919054
724,1014.59,6.754915418075707
725,1015.01,25.759519519520495
726,1016.57,8.572029442691903
727,1017.07,25.847880405764336
728,1018.56,8.720430107526882
729,1019.06,24.78432098765478
730,1020.53,8.761138639957672
731,1021.04,26.28128686327062
732,1022.55,8.568199445983705
733,1023.03,25.996838905774165
734,1024.59,8.232246998285566
735,1025.04,27.956799078871285
736,1026.56,8.103713956171708
737,1027.0,28.19375586854443
738,1028.51,8.087953216373482
739,1029.07,21.77295075610901
740,1030.66,5.155364806865613
741,1031.01,23.522183803457267
742,1032.54,6.779040125885255
743,1033.03,17.71146617692051
744,1034.55,5.002816281628558
745,1035.01,19.36604316546783
746,1036.74,3.7376223776214776
747,1037.08,16.143584905660088
748,1038.61,5.554421980302771
749,1039.14,14.997875288681803
750,1040.58,5.37030625158169
751,1041.1,15.284717792963995
752,1042.58,5.600537686031493
753,1043.14,13.722567760341192
754,1044.52,5.662387847139173
755,1045.09,13.761038015024607
756,1046.51,6.532231404957687
757,1047.11,21.878803418803553
758,1048.6,8.684944920441513
759,1049.05,29.559952550413986
760,1050.62,7.882008269345724
761,1051.04,28.992029429797668
762,1052.54,9.900665844636075
763,1053.05,28.63126131563066
764,1054.55,9.603406326034062
765,1055.05,29.139838207840874
766,1056.54,11.21025137952036
767,1057.12,27.77867007672834
768,1058.51,9.873071971912891
769,1059.04,27.196595744681183
770,1060.52,8.876996047430996
771,1061.01,27.781884637349755
772,1062.53,8.826870562534134
773,1063.03,26.638414969730324
774,1064.53,9.182857142856978
775,1065.04,26.215633423180595
776,1066.54,35.97218454697038
777,1068.55,8.940588561910051
778,1069.05,26.879124247399787
779,1070.57,8.441739130435103
780,1071.05,26.67346587855944
781,1072.58,8.738181818182149
782,1073.06,25.771117287382854
783,1074.5,10.131239669420356
784,1075.07,26.188076490439514
785,1076.52,9.826178591236015
786,1077.07,27.513300055462462
787,1078.61,8.78831661092547
788,1079.1,34.26015401540267
789,1081.03,192.94787878787682
790,1084.57,29.24672782874672
791,1086.53,8.594970494779009
792,1087.09,5.720000000000255
793,1088.52,13.707819253438634
794,1089.0,41.86766355140113
795,1090.53,12.34571676802827
796,1091.01,41.167719298245125
797,1092.53,12.93362182502427
798,1093.0,64.77742946708464
799,1094.5,29.487935222670078
800,1095.04,77.34857142857238
801,1096.52,17.66803149606366
802,1097.0,53.34576441102725
803,1098.51,11.448768396592001
804,1099.0,24.568886852953383
805,1100.59,6.2531707317084
806,1101.01,23.60008980691444
807,1102.56,7.967681159420011
808,1103.08,24.00644501278879
809,1104.51,10.985978755691804
810,1105.17,22.38235772357587
811,1106.51,8.766806526805672
812,1107.07,23.201662591688073
813,1108.5,7.789691409507398
814,1109.04,23.570209205022497
815,1110.67,4.815843960988909
816,1111.03,18.899896800825594
817,1112.53,9.154519303558768
818,1113.21,20.28027418126428
819,1114.71,4.998448079116061
820,1115.08,19.485780682643547
821,1116.57,6.167051282052047
822,1117.01,21.301325019484953
823,1118.56,6.470309278350635
824,1119.05,19.67099658961777
825,1120.51,60.08833394902057
826,1125.05,80.7695599393021
827,1131.04,201.95508481588644
828,1145.12,94.33848504137612
829,1153.01,25.846161369192803
830,1155.04,74.30609385327097
831,1161.1,95.51853360488911
832,1168.75,85.01374482498949
833,1175.09,65.12727673649414
834,1181.07,47.73815668202752
835,1184.58,34.338006230529594
836,1187.08,21.114141876432544
837,1188.64,50.89181159419902
838,1190.55,27.625794392522515
839,1192.62,5.233018004272729
840,1193.07,22.288650217707026
841,1195.05,40.889084868619335
842,1198.59,52.88356985178231
843,1203.04,44.955107913669536
844,1206.5,42.2919226856557
845,1209.03,75.89142857142758
846,1214.61,4.910057273769223
847,1215.05,19.62937408169283
848,1216.78,5.428414701042238
849,1217.28,14.073751451800232
850,1218.53,6.702925989674502
851,1219.13,15.154180396535981
852,1220.51,6.34531202894129
853,1221.06,19.819323816679432
854,1222.54,9.553587786259905
855,1223.02,31.47723418134284
856,1224.57,8.86059275521405
857,1225.07,24.26407535944502
858,1226.55,8.948304613674264
859,1227.05,26.90804347826039
860,1228.58,9.093744221879202
861,1229.12,23.25348268839271
862,1230.51,11.266848072564507
863,1231.13,25.826889632103924
864,1232.57,9.018653530377508
865,1233.08,24.294897959184436
866,1234.53,8.194096692112112
867,1235.02,26.007331064659326
868,1236.63,6.325260495698589
869,1237.01,27.404354657687662
870,1238.53,7.46322415993181
871,1239.04,28.87726557773727
872,1240.55,10.87693721286434
873,1241.02,34.38084084084064
874,1242.53,10.684964447316839
875,1243.06,29.683648041105055
876,1244.54,10.3500334001336
877,1245.04,30.99506547208899
878,1246.5,10.83310344827567
879,1247.01,33.14714881780153
880,1248.56,9.58764632627664
881,1249.05,29.1428151774784
882,1250.56,9.127207207207555
883,1251.04,28.045855379188716
884,1252.54,9.362913165265779
885,1253.06,28.985364677516227
886,1254.58,8.592298136647027
887,1255.02,30.158326458458486
888,1256.63,7.542646566161378
889,1257.05,24.85263810015534
890,1258.52,8.736428571428416
891,1259.03,27.911378910776197
892,1260.54,9.60750434279063
893,1261.06,27.728989298454735
894,1262.53,10.390832759807488
895,1263.02,32.44569816643159
896,1264.52,9.3102558398217
897,1265.04,27.94380952380987
898,1266.52,11.1345896656521
899,1267.1,25.905379922352445
900,1268.55,8.82274509803938
901,1269.04,27.64504939626687
902,1270.6,8.089113924051635
903,1271.04,28.112304900182007
904,1272.51,9.517063541024235
905,1273.0,29.629489603024574
906,1274.5,11.1227774172606
907,1275.05,29.287643312102453
908,1276.52,9.61724182168093
909,1277.0,29.824650571791615
910,1278.5,9.654623392529087
911,1279.0,30.237548467791655
912,1280.54,9.363377369327806
913,1281.05,26.346616460462453
914,1282.56,7.13175355450309
915,1283.01,24.89746248294861
916,1284.63,8.296257088843827
917,1285.05,16.841283607979186
918,1286.55,6.728954105525317
919,1287.12,17.48193508879363
920,1288.62,5.271394922795079
921,1289.12,16.088329466358022
922,1290.55,5.851395416303828
923,1291.07,14.871617312073456
924,1292.51,5.409918032786696
925,1293.03,15.975707291934784
926,1294.56,5.028100775193798
927,1295.06,16.908140442133977
928,1296.67,3.4160365853651
929,1297.0,16.898687664041034
930,1298.6,4.978317846080534
931,1299.1,15.865752057871655
932,1300.65,5.301234150465121
933,1301.13,16.692899914456802
934,1302.63,5.073061568735595
935,1303.09,17.034448783418654
936,1304.57,5.59490055116396
937,1305.13,14.799582344563566
938,1306.62,4.795629043853525
939,1307.1,14.68634028114433
940,1308.56,6.017058823529101
941,1309.09,17.11453866053433
942,1310.62,5.282083208620591
943,1311.08,17.590358612582897
944,1312.63,4.6619745442022715
945,1313.0,19.08896637608838
946,1314.62,7.04145941921128
947,1315.31,12.98277432712225
948,1316.55,4.914759171450148
949,1317.03,16.44049702303842
950,1318.6,5.059696356275397
951,1319.09,15.691551956815506
952,1320.55,5.085085529357196
953,1321.07,15.169686552073081
954,1322.54,4.845280528052719
955,1323.05,17.049819775938204
956,1324.74,4.680000000000811
957,1325.16,15.841065088755945
958,1326.55,6.2087542087542085
959,1327.05,19.156747741487028
960,1328.56,8.697693885927134
961,1329.17,25.320732364024828
962,1330.62,4.808917027658681
963,1331.01,19.38027210884297
964,1332.56,6.287977351368031
965,1333.09,16.671316725979967
966,1334.7,3.600185614848472
967,1335.02,17.96936170212897
968,1336.64,3.7696039603949276
969,1337.01,16.585072765072
970,1338.59,6.477349042711728
971,1339.16,16.700005098138142
972,1340.77,3.316141511834413
973,1341.09,15.281290663846121
974,1342.53,6.3294458653019365
975,1343.1,17.256953393807123
976,1344.56,6.549889275545172
977,1345.11,16.549935004643487
978,1346.52,6.636984924622469
979,1347.08,18.737611839892253
980,1348.59,5.928245547556628
981,1349.03,21.61783942833136
982,1350.52,8.913867187499262
983,1351.07,26.645313398505724
984,1352.52,12.415260295259658
985,1353.05,36.09754045307466
986,1354.54,10.81494838265638
987,1355.05,31.785663082438273
988,1356.5,10.401249999999465
989,1357.03,28.34295671725574
990,1358.6,12.059984996253613
991,1359.13,29.12478178367725
992,1360.6,8.08578117965186
993,1361.13,18.60148588409923
994,1362.53,6.57710944026883
995,1363.13,16.82005830903544
996,1364.62,5.421429782424514
997,1365.11,15.320020549704882
998,1366.58,4.538896972542016
999,1367.04,14.162472666105717
1000,1368.57,5.748663011388697
1001,1369.19,12.954244604317038
1002,1370.63,4.07384278519661
1003,1371.06,16.05280936454858
1004,1372.8,1.8855405992188394
1005,1373.0,14.162821070962126
1006,1374.5,7.779191919191161
1007,1375.34,11.585582785417136
1008,1376.63,4.063182579562893
1009,1377.07,13.674922839505772
1010,1378.62,18.1352385101292
1011,1380.54,11.77091537133081
1012,1381.0,26.1493172690751
1013,1382.58,4.157036391371184
1014,1383.02,14.710824849365462
1015,1384.62,3.6768431983393617
1016,1385.02,15.583169251518333
1017,1386.64,4.249814395652473
1018,1387.08,14.234128128977261
1019,1388.61,5.668003108003994
1020,1389.25,11.78870850124664
1021,1390.59,5.778308227116141
1022,1391.18,13.76094777562753
1023,1392.55,5.297346037647795
1024,1393.09,14.583620063000216
1025,1394.54,4.878579881656989
1026,1395.02,39.18104529616678
1027,1396.54,18.63309192200628
1028,1397.02,52.993791348601164
1029,1398.5,15.034230019492405
1030,1399.03,40.96136910268246
1031,1400.54,12.620220900594733
1032,1401.04,38.01444991789708
1033,1402.59,9.509977628636996
1034,1403.01,34.44802351212263
1035,1404.55,9.663129251701445
1036,1405.01,30.859732620321044
1037,1406.5,10.139516429013902
1038,1407.02,29.91077112893205
1039,1408.56,8.55234525837642
1040,1409.03,26.856027397260775
1041,1410.5,11.070318118948437
1042,1411.02,34.69264705882251
1043,1412.57,9.083013698631483
1044,1413.0,30.623523382446603
1045,1414.53,9.748553459118407
1046,1415.1,24.931321928460804
1047,1416.57,8.093643574828604
1048,1417.04,25.879786096256844
1049,1418.53,9.489047849201196
1050,1419.12,22.296518144236032
1051,1420.56,7.45401273885337
1052,1421.07,23.563135182741338
1053,1422.64,6.2820717131448705
1054,1423.09,19.233053892216297
1055,1424.53,6.34753581661903
1056,1425.02,22.161176470589076
1057,1426.7,4.97328971283015
1058,1427.08,19.633806265754295
1059,1428.59,6.504778761061719
1060,1429.11,18.038352464551544
1061,1430.56,6.169621993127262
1062,1431.05,18.55777003484367
1063,1432.51,6.911591355599214
1064,1433.01,20.15893371757866
1065,1434.56,6.471512892202013
1066,1435.11,18.240326325700412
1067,1436.65,4.895689851765466
1068,1437.09,16.419145397189865
1069,1438.56,4.866022871664831
1070,1439.03,16.01394723228114
1071,1440.56,6.516816208395369
1072,1441.14,16.826707654470773
1073,1442.58,5.309655575014903
1074,1443.05,17.332150170647857
1075,1444.61,4.716989247312413
1076,1445.05,16.934632604689355
1077,1446.65,4.586111484216243
1078,1447.02,19.022694198622737
1079,1448.58,6.491442453691647
1080,1449.14,16.8731199521365
1081,1450.61,10.414602675060301
1082,1451.05,49.18916864608199
1083,1452.51,6.611292909848667
1084,1453.06,15.833213396070246
1085,1454.51,6.538882367952141
1086,1455.14,12.983908045975383
1087,1456.59,4.0478475530538685
1088,1457.02,13.753206944721367
1089,1458.55,5.8900820633057736
1090,1459.07,17.82453781512735
1091,1460.69,3.8315757964493566
1092,1461.1,13.123975254440559
1093,1462.56,4.215542243338486
1094,1463.02,13.486462167689329
1095,1464.5,5.787019415403291
1096,1465.12,13.72286225402684
1097,1466.65,3.752641136990328
1098,1467.07,13.517745056794617
1099,1468.53,5.346968838526552
1100,1469.07,14.308120607572155
1101,1470.55,4.1713416536663885
1102,1471.02,15.508271883621678
1103,1472.53,5.320702781845111
1104,1473.0,16.467137106323328
1105,1474.66,27.834878444082843
1106,1476.25,5.939052428337896
1107,1477.02,36.61323843416508
1108,1478.7,5.032957746478784
1109,1479.21,9.918582502768203
1110,1480.25,6.215238095237877
1111,1481.03,13.34097404905733
1112,1482.61,6.236656039674182
1113,1483.35,10.67362721277501
1114,1484.63,4.326738868830846
1115,1485.11,12.852487992315403
1116,1486.57,7.415939196526523
1117,1487.44,12.960872274141964
1118,1488.85,2.1648581944145464
1119,1489.08,10.029650613787384
1120,1490.23,5.672234973739389
1121,1490.87,14.951569173630613
1122,1492.6,6.560974060351073
1123,1493.38,12.154168797953819
1124,1494.9,1.8677873563201404
1125,1495.12,13.667720177299735
1126,1496.67,4.097399509341623
1127,1497.14,12.341140215715283
1128,1498.54,4.185981232150474
1129,1499.0,15.410360403651726
1130,1500.54,4.145278581068295
1131,1501.01,14.974127516779616
1132,1502.63,4.013144950286058
1133,1503.11,13.894116755118784
1134,1504.7,3.5773617636416173
1135,1505.12,13.848005142489992
1136,1506.6,3.8584232365151916
1137,1507.02,16.811407437845975
1138,1508.86,2.0487207819807045
1139,1509.08,13.249663012586606
1140,1510.54,5.908621236133854
1141,1511.2,12.191254391402516
1142,1512.53,4.547261339912538
1143,1513.05,13.268800605372522
1144,1514.57,5.5676006191960115
1145,1515.2,12.868096740272218
1146,1516.59,5.172374500608942
1147,1517.21,11.256696269982157
1148,1518.47,6.52386052783672
1149,1519.21,16.463671164102664
1150,1520.6,5.682578796563237
1151,1521.17,13.559735786741077
1152,1522.54,4.968341754708226
1153,1523.05,17.099845758355798
1154,1524.69,5.029974160207226
1155,1525.14,16.18917702782535
1156,1526.56,5.032340425531576
1157,1527.1,13.756125160737504
1158,1528.57,4.566166707647375
1159,1529.02,21.575042862468962
1160,1530.64,4.760141843970227
1161,1531.01,22.88161262050792
1162,1532.54,6.670344827587852
1163,1533.13,14.728884932116278
1164,1534.67,6.1352751471708915
1165,1535.26,13.1784873069877
1166,1536.51,5.7641075794614585
1167,1537.08,18.334717741935204
1168,1538.86,2.1362399529504827
1169,1539.1,12.723650793651446
1170,1540.52,17.523809523809526
1171,1542.52,6.865188005712109
1172,1543.21,14.042779740872334
1173,1544.63,3.7907980888323025
1174,1545.08,10.127493651104622
1175,1546.22,7.44448217317445
1176,1547.02,13.130492021277634
1177,1548.63,6.6495444685465195
1178,1549.14,17.21924191750209
1179,1550.71,2.7164717088964547
1180,1551.02,12.950871080138992
1181,1552.57,4.206531332744925
1182,1553.07,13.4244143795901
1183,1554.59,5.998498720502548
1184,1555.13,14.912769830947662
1185,1556.55,6.817845849803112
1186,1557.22,13.306052809748351
1187,1558.6,4.146525722340394
1188,1559.02,14.619545454545365
1189,1560.53,4.313943285179164
1190,1561.04,13.281579132886241
1191,1562.62,4.456592780242033
1192,1563.18,12.628975521305685
1193,1564.66,3.248896587561732
1194,1565.05,9.389092476826903
1195,1566.05,8.434971780399636
1196,1566.86,17.250191657273543
1197,1568.65,5.06491103202838
1198,1569.16,15.44805755395551
1199,1570.54,5.6290042372878455
1200,1571.07,16.170374064839486
1201,1572.65,5.242712886209402
1202,1573.16,17.840196367206584
1203,1574.92,1.9504554301286965
1204,1575.14,12.65787315577545
1205,1576.58,4.236119532265478
1206,1577.03,15.318526794952044
1207,1578.7,4.049414024976304
1208,1579.16,13.85658960679667
1209,1580.71,3.644452759589032
1210,1581.13,14.3697248828198
1211,1582.71,3.205612876598424
1212,1583.06,14.302665173572315
1213,1584.55,5.783565007674962
1214,1585.16,13.157650750951653
1215,1586.53,4.417865168539407
1216,1587.02,15.157530864197623
1217,1588.51,5.036923790743659
1218,1589.24,11.27470588235337
1219,1590.68,2.862591493570153
1220,1591.0,15.251090573012407
1221,1592.56,5.180394088669858
1222,1593.07,15.349153924566957
1223,1594.55,6.499089699229464
1224,1595.16,15.824937903625964
1225,1596.71,3.3066192733007624
1226,1597.08,14.387067551738651
1227,1598.7,4.138620827503825
1228,1599.16,13.732272471382366
1229,1600.74,4.230200148258048
1230,1601.23,11.879319947236937
1231,1602.78,2.0131558935362808
1232,1603.01,13.073724613377973
1233,1604.52,4.049925452609312
1234,1605.0,12.98657942566324
1235,1606.52,4.716561117989988
1236,1607.08,11.179612703331324
1237,1608.5,4.269578195976418
1238,1609.03,13.631403932391311
1239,1610.67,4.4077885952694285
1240,1611.12,15.825658462321277
1241,1612.65,4.617884722997741
1242,1613.07,17.193413751507943
1243,1614.56,5.78022099447484
1244,1615.09,17.24551684422903
1245,1616.63,5.03997248021844
1246,1617.03,17.289337365960066
1247,1618.62,4.205143787304388
1248,1619.01,16.417983968910498
1249,1620.64,3.686970802918561
1250,1621.02,15.335149253730808
1251,1622.58,4.359138268703567
1252,1623.07,14.00199228340994
1253,1624.74,2.0741089837995657
1254,1625.01,12.359475566149476
1255,1626.61,4.03640211640227
1256,1627.09,11.428398677374075
1257,1628.53,4.02386856274997
1258,1629.07,15.129651347068634
1259,1630.76,3.7300608124555823
1260,1631.13,12.549339853299658
1261,1632.51,8.588713889988455
1262,1633.47,11.761647446458529
1263,1634.66,3.009204501357444
1264,1635.0,12.858652540969446
1265,1636.58,4.493516856173947
1266,1637.08,13.265470085470763
1267,1638.5,9.210773858352857
1268,1639.35,13.862849239280576
1269,1640.62,4.370238278248259
1270,1641.04,16.793070866143267
1271,1642.63,3.661603773583826
1272,1643.0,16.210526315789473
1273,1644.75,3.7049126034969246
1274,1645.13,13.988389428505135
1275,1646.58,8.079394703657755
1276,1647.26,15.036487579432935
1277,1648.6,3.860537261699211
1278,1649.01,13.866164931945228
1279,1650.55,5.210507107998644
1280,1651.11,13.923265306122977
1281,1652.55,5.736584522266654
1282,1653.16,13.985170454544011
1283,1654.57,4.182262569832402
1284,1655.07,12.376466587315083
1285,1656.57,4.547565518379514
1286,1657.13,12.054881661840753
1287,1658.59,4.686281661602155
1288,1659.16,11.170279259490531
1289,1660.57,5.337027365409616
1290,1661.2,21.69195402298639
1291,1662.6,6.678128469468929
1292,1663.08,17.91106918238983
1293,1664.59,4.193588480485191
1294,1665.07,14.19428571428675
1295,1666.69,3.474787379971874
1296,1667.01,25.25778491171686
1297,1668.81,2.787329376855082
1298,1669.02,15.56561191016897
1299,1670.53,5.406922867266285
1300,1671.03,19.029137709136833
1301,1672.61,5.486750348675034
1302,1673.11,17.525178511846075
1303,1674.53,8.73530921820354
1304,1675.0,26.48734952481458
1305,1676.54,17.340526315790477
1306,1677.01,55.623676662320065
1307,1678.53,16.630658682635037
1308,1679.02,50.457687074828165
1309,1680.58,15.157283950617014
1310,1681.09,39.554045801528744
1311,1682.51,10.455145631068156
1312,1683.0,31.417619047618487
1313,1684.53,8.669156355455897
1314,1685.01,28.088739495797338
1315,1686.57,6.893243503369644
1316,1687.0,23.577781834778218
1317,1688.53,6.831993450675657
1318,1689.01,20.498919925511622
1319,1690.55,5.655527538155724
1320,1691.01,19.77367847411353
1321,1692.59,6.700712074303531
1322,1693.08,18.52323777403047
1323,1694.57,23.719197104311295
1324,1696.51,22.238907103826275
1325,1697.22,21.8675598086107
1326,1698.59,6.197156830779153
1327,1699.1,18.405547073793635
1328,1700.64,4.714294612268713
1329,1701.04,19.027647058823078
1330,1702.58,6.1013116970927435
1331,1703.07,18.090242214533674
1332,1704.5,9.339275413296047
1333,1705.23,16.157679269881775
1334,1706.56,7.684909747294315
1335,1707.15,18.57502361060459
1336,1708.57,6.503768545994186
1337,1709.06,20.22106686701716
1338,1710.57,7.188745139627528
1339,1711.13,18.320956937798716
1340,1712.66,3.880861922312573
1341,1713.01,17.013850076492623
1342,1714.65,4.253462519121387
1343,1715.06,14.558844125713392
1344,1716.63,5.114350282485613
1345,1717.16,10.206392914652717
1346,1718.29,8.973950953677686
1347,1719.12,15.109424206817486
1348,1720.65,4.388066298342464
1349,1721.16,9.528683736025036
1350,1722.28,7.111811399582777
1351,1723.2,11.608525907082074
1352,1724.78,2.107566897040581
1353,1725.03,13.242966585167881
1354,1726.67,4.5450034021322665
1355,1727.14,15.731201344159498
1356,1728.57,6.559654427647812
1357,1729.13,14.576945551127656
1358,1730.5,6.030724429265094
1359,1731.21,12.568874546186827
1360,1732.6,3.7188349514569548
1361,1733.02,15.671658147618324
1362,1734.74,2.9482517482513018
1363,1735.04,15.22203592814318
1364,1736.6,5.296446040705463
1365,1737.24,11.466804499848191
1366,1738.71,2.1896832836242104
1367,1739.0,12.660600609314422
1368,1740.66,4.689802209091349
1369,1741.11,16.60631578947597
1370,1742.63,4.411265432098766
1371,1743.13,12.758444790045125
1372,1744.57,3.9777419354843646
1373,1745.01,17.095989515073335
1374,1746.63,4.1849904600364685
1375,1747.08,17.29761410788477
1376,1748.73,2.5045747086446024
1377,1749.03,14.885237096098534
1378,1750.64,6.274882749011986
1379,1751.28,12.584685298795288
1380,1752.58,4.391933131780036
1381,1753.1,12.412367081944353
1382,1754.58,4.543010363548038
1383,1755.14,12.615040397761867
1384,1756.74,7.183251533741067
1385,1757.05,21.408761597418057
1386,1758.57,6.85525004902906
1387,1759.34,5.677202797203012
1388,1760.06,5.796971830986374
1389,1760.75,16.110488599349388
1390,1762.64,4.724166666666424
1391,1763.17,11.714312441533355
1392,1764.52,6.727116193037984
1393,1765.34,10.638055051921627
1394,1766.65,3.728341543512409
1395,1767.11,12.642149441067524
1396,1768.53,3.7715003219577206
1397,1769.0,16.271351351351523
1398,1770.73,6.483491907796651
1399,1771.37,11.52128025605301
1400,1772.65,4.455624725995473
1401,1773.12,13.065063449137345
1402,1774.54,4.461005770817173
1403,1775.14,6.482485682952486
1404,1776.06,8.109567066686637
1405,1777.1,10.746104516305426
1406,1778.55,4.124346595376487
1407,1779.07,8.578147821485118
1408,1780.09,5.514564459930998
1409,1780.75,14.223571909961379
1410,1782.68,3.905370811497611
1411,1783.17,12.330182309250507
1412,1784.67,4.207706422018427
1413,1785.16,14.104160246532325
1414,1786.76,3.971814671815073
1415,1787.21,11.63928772258598
1416,1788.55,4.004502164502481
1417,1789.01,13.978129184006642
1418,1790.65,4.013695395511955
1419,1791.1,11.99990738954386
1420,1792.46,2.7511892450874837
1421,1792.76,16.37005378271836
1422,1794.69,16.94356275303545
1423,1796.56,5.582884431709102
1424,1797.12,17.301194029852894
1425,1798.88,2.003659766914163
1426,1799.12,8.769848650336472
1427,1800.23,4.463001974983173
1428,1800.78,13.848152403991321
1429,1802.56,7.015601436265884
1430,1803.29,13.252848180677168
1431,1804.58,4.925619491965034
1432,1805.05,9.750501143688414
1433,1806.11,5.537278314311486
1434,1806.77,14.188427831003324
1435,1808.56,4.9637354085598275
1436,1809.12,7.038020164987657
1437,1809.94,6.237779422649469
1438,1810.75,14.531378299119869
1439,1812.55,20.692238470192102
1440,1814.7,4.736240319174082
1441,1815.18,12.086598390635183
1442,1816.59,7.395820074642901
1443,1817.42,11.408545486913955
1444,1818.77,4.044864864865565
1445,1819.19,12.576974720264229
1446,1820.56,5.312361889512919
1447,1821.15,14.620416489587168
1448,1822.72,3.152659176029335
1449,1823.04,14.93910419613381
1450,1824.55,5.374285714285352
1451,1825.09,19.243730644580722
1452,1826.57,5.870440744369832
1453,1827.15,13.939072388383353
1454,1828.63,5.047784854918524
1455,1829.14,15.69913170021774
1456,1830.7,3.9666631148998928
1457,1831.17,13.29556518314305
1458,1832.66,4.227258930224028
1459,1833.15,11.608951641368577
1460,1834.53,13.05825327510933
1461,1835.27,18.102295822354822
1462,1836.62,4.602163611980505
1463,1837.1,16.08701992369665
1464,1838.83,2.053708920188048
1465,1839.05,16.96792569659507
1466,1840.97,1.4695225710576605
1467,1841.14,12.57128401686326
1468,1842.57,5.2042624789692145
1469,1843.17,13.39002789100898
1470,1844.6,3.999218926023598
1471,1845.06,13.696614432191511
1472,1846.61,5.502098872507187
1473,1847.27,13.292307692308555
1474,1848.67,2.780779548681619
1475,1849.02,9.122328010745157
1476,1850.2,4.60679152809344
1477,1850.75,15.24792710706231
1478,1852.64,7.883027461484486
1479,1853.02,21.09000000000045
1480,1854.73,2.489989680082182
1481,1855.03,9.402507288629877
1482,1856.26,7.211515242529402
1483,1857.19,10.508713889988528
1484,1858.63,4.790438247011226
1485,1859.23,13.04631545641411
1486,1860.87,2.217129380055626
1487,1861.14,12.690502725619915
1488,1862.77,1.7869018743109826
1489,1863.01,13.147170256713174
1490,1864.72,2.8241536458325998
1491,1865.07,11.516763917363551
1492,1866.52,5.029960159363421
1493,1867.15,11.977048135160983
1494,1868.65,3.7988163457023516
1495,1869.13,17.46092555331812
1496,1870.54,9.233796296296296
1497,1871.04,27.777025862071508
1498,1872.63,5.226593835347574
1499,1873.01,21.666122448978477
1500,1874.6,7.005923183711953
1501,1875.05,23.094490818032018
1502,1876.65,8.541894383904934
1503,1877.24,20.994002399040387
1504,1878.74,3.2588250484181147
1505,1879.01,17.79393341553616
1506,1880.53,6.898465424691273
1507,1881.11,15.798939949253594
1508,1882.54,5.903979394720006
1509,1883.03,26.732173913043155
1510,1884.55,7.105554231227525
1511,1885.06,19.391029411765068
1512,1886.53,7.637014925372998
1513,1887.04,28.237434402332024
1514,1888.56,6.63341506129574
1515,1889.08,17.746322247336458
1516,1890.55,6.363001745200698
1517,1891.05,19.210615065652846
1518,1892.57,4.799296187682961
1519,1893.11,18.221645796065275
1520,1895.01,0.0
1521,1895.01,15.25629352811204
1522,1896.86,2.133479366321223
1523,1897.1,11.910010672359283
1524,1898.51,4.704289483603151
1525,1899.05,14.106997985225245
1526,1900.52,5.3906745252122334
1527,1901.09,15.748976197305188
1528,1902.5,4.838973427208721
1529,1903.0,15.125999068467273
1530,1904.54,6.9333333333343035
1531,1905.19,15.490396039603214
1532,1906.51,6.141522189010033
1533,1907.14,14.380698188245605
1534,1908.65,3.939452273330399
1535,1909.02,12.772500000000093
1536,1910.26,5.623979328165308
1537,1911.02,13.601505187270202
1538,1912.64,4.598919247115331
1539,1913.23,6.540696675679467
1540,1914.05,5.843600413162097
1541,1914.81,11.304986690329534
1542,1916.15,4.977015471634519
1543,1916.76,14.808087466327837
1544,1918.62,4.248490099011404
1545,1919.16,12.909137380191464
1546,1920.69,4.640539581114277
1547,1921.24,11.881956673655395
1548,1922.66,17.321653704460484
1549,1924.56,4.32943805235929
1550,1925.09,12.466120715803306
1551,1926.69,4.277802197802048
1552,1927.21,12.853438285043861
1553,1928.78,3.645488088841665
1554,1929.21,13.69860609189355
1555,1930.86,2.2736906460158957
1556,1931.11,13.358488952246496
1557,1932.69,4.105613667016123
1558,1933.22,14.091251084505053
1559,1934.91,2.3899095668725554
1560,1935.21,11.704088748019235
1561,1936.68,5.114777234097442
1562,1937.17,13.573690685411453
1563,1938.6,4.269632314863818
1564,1939.19,11.491563657077618
1565,1940.71,5.019234777429347
1566,1941.36,11.574756054756971
1567,1942.74,4.236332569285603
1568,1943.2,12.09452298184531
1569,1944.57,4.251342078708622
1570,1945.04,12.909881710645964
1571,1946.55,22.214925982645244
1572,1948.69,4.39441971383156
1573,1949.18,12.272386258123083
1574,1950.6,4.095786582974039
1575,1951.06,14.541229050279881
1576,1952.74,4.400876576390491
1577,1953.22,11.779962192815841
1578,1954.57,4.101025081788595
1579,1955.05,13.72374954759428
1580,1956.66,4.313054168267463
1581,1957.15,12.57785536159457
1582,1958.58,5.099574468086171
1583,1959.19,11.229010129731035
1584,1960.52,17.236662693682646
1585,1961.03,52.17000000000064
1586,1962.51,15.406761800219824
1587,1963.0,42.61846153846103
1588,1964.52,12.265482388973336
1589,1965.05,31.864033379694217
1590,1966.54,8.624660766962332
1591,1967.0,27.751740139211137
1592,1968.5,10.222170361726109
1593,1969.05,27.017094403618025
1594,1970.54,8.711395348837716
1595,1971.01,28.767163828537193
1596,1972.55,8.703461091754281
1597,1973.02,27.40389360498003
1598,1974.53,9.770930607852733
1599,1975.09,23.184930966470617
1600,1976.51,9.579513108612662
1601,1977.12,22.062222222222772
1602,1978.58,6.30758924636513
1603,1979.0,24.536826495304002
1604,1980.5,8.522021803765806
1605,1981.02,23.03318853171088
1606,1982.57,7.671625441695976
1607,1983.08,22.33986928104575
1608,1984.58,7.583810330228355
1609,1985.1,20.576465554130564
1610,1986.5,24.51579453289402
1611,1988.63,3.785036818849765
1612,1989.07,12.767310685139815
1613,1990.53,4.229913378248476
1614,1991.01,13.117804610318098
1615,1992.54,4.448936866208333
1616,1993.09,14.091958762887888
1617,1994.68,4.204318451875668
1618,1995.19,11.78268967762973
1619,1996.65,4.266343760511118
1620,1997.17,9.745927342255335
1621,1998.28,7.043556595496316
1622,1999.2,12.936827262044114
1623,2000.51,5.085867176301868
1624,2001.02,13.789779808890735
1625,2002.52,6.11987764465885
1626,2003.11,15.900639470783196
1627,2004.57,5.3883769116918785
1628,2005.1,15.064729904368624
1629,2006.54,7.225133505598452
1630,2007.31,12.828044485634312
1631,2008.62,3.6785699438794475
1632,2009.02,13.070135522046272
1633,2010.51,6.4743161343164655
1634,2011.22,11.593055286129488
1635,2012.53,4.383749999999922
1636,2013.04,12.773856582233243
1637,2014.55,4.171989888046303
1638,2015.04,13.012501632920689
1639,2016.65,3.9467012650016953
1640,2017.14,12.465157639449917
1641,2018.69,5.9738276836161255
1642,2019.4,10.230847212163546
1643,2020.6,3.9680477934095357
1644,2021.05,13.143503488798885
1645,2022.58,16.713212045170394
1646,2024.69,3.801673271685185
1647,2025.09,15.223073460201196
1648,2026.76,3.8932424708734965
1649,2027.17,13.275207531021234
1650,2028.59,5.622552532626912
1651,2029.18,13.777570093456601
1652,2030.58,5.5996222271043905
1653,2031.17,13.861635220125788
1654,2032.67,3.2134715025898384
1655,2033.02,15.06352941176418
1656,2034.58,5.2390623213267755
1657,2035.05,16.317375745527144
1658,2036.52,5.097787144362066
1659,2037.07,15.11553219448162
1660,2038.5,6.121889900304281
1661,2039.15,13.19192495921531
1662,2040.6,3.5831669044226158
1663,2041.05,13.725269960391994
1664,2042.54,15.067889908258405
1665,2043.44,10.828336221835805
1666,2044.59,4.388096753661541
1667,2045.14,12.103442136498025
1668,2046.71,4.101608391608467
1669,2047.2,8.69009208103123
1670,2048.21,6.005821325648139
1671,2049.0,13.42617249253393
1672,2050.6,5.96519648636278
1673,2051.21,14.175351014039608
1674,2052.56,4.516201453270417
1675,2053.0,15.344848711243774
1676,2054.77,3.2028289659054874
1677,2055.06,17.78351699882952
1678,2056.63,4.593602986930673
1679,2057.02,19.06193548387009
1680,2058.6,6.243216783219796
1681,2059.09,19.91267644050073
1682,2060.68,4.897070225615387
1683,2061.09,17.19465517241145
1684,2062.56,8.29949903660952
1685,2063.25,15.355080906148649
1686,2064.52,6.000244814689108
1687,2065.0,23.39905160390701
1688,2066.84,2.8708754377162484
1689,2067.12,11.799255158530894
1690,2068.56,4.744971458226583
1691,2069.13,10.592563718139717
1692,2070.56,4.490887026871954
1693,2071.15,11.447330983657773
1694,2072.58,4.401538903243777
1695,2073.16,11.447330983661413
1696,2074.59,5.03102040816238
1697,2075.21,11.732842809362952
1698,2076.68,4.083045740894256
1699,2077.23,9.87905179982413
1700,2078.52,4.790128589044885
1701,2079.09,10.922030398623873
1702,2080.53,6.907269854946476
1703,2081.44,9.024438288704932
1704,2082.59,4.23828718241466
1705,2083.15,11.446305480967105
1706,2084.59,3.742339160209511
1707,2085.03,14.67550195104463
1708,2086.77,1.9293031420047162
1709,2087.0,13.28560509554314
1710,2088.53,7.028201172476565
1711,2089.13,17.248842620943265
1712,2090.61,5.258549346017063
1713,2091.07,17.20737920937022
1714,2092.59,4.77095425377752
1715,2093.11,12.282459373429386
1716,2094.61,4.112899824251244
1717,2095.1,12.496939631588859
1718,2096.56,4.772497661367341
1719,2097.11,12.480179204779267
1720,2098.55,5.643526170796099
1721,2099.1,13.262003514937877
1722,2100.68,4.290936739660786
1723,2101.23,12.309722637433715
1724,2102.74,4.097858439201607
1725,2103.22,14.73619504987102
1726,2104.93,2.244595997036725
1727,2105.19,9.619586032548874
1728,2106.4,18.693755717431664
1729,2108.67,14.775541883578864
1730,2110.53,4.713408765766642
1731,2111.18,11.39568345323741
1732,2112.68,2.636391997288565
1733,2113.0,12.850273089903883
1734,2114.64,2.7579463122238828
1735,2115.02,12.029393863806824
1736,2116.71,2.3331858873103037
1737,2117.03,14.540651536204319
1738,2118.88,11.717439532004487
1739,2120.6,2.7356840514001886
1740,2121.03,6.053106915851227
1741,2121.98,5.7211671087541625
1742,2122.84,12.361546553474437
1743,2124.8,2.3085233696397425
1744,2125.11,10.763072017006241
1745,2126.58,4.088021680216957
1746,2127.06,13.081846416868638
1747,2128.79,2.151436993367723
1748,2129.04,12.301504937012506
1749,2130.53,4.196640378547109
1750,2131.0,14.064633471646374
1751,2132.69,4.154357746928209
1752,2133.21,11.693110968569886
1753,2134.67,4.469654403567011
1754,2135.23,8.012079806531181
1755,2136.26,6.666290516203945
1756,2137.12,13.561348314609717
1757,2138.53,6.826436225371127
1758,2139.07,15.180174649376406
1759,2140.5,5.728007699712062
1760,2141.15,13.645557184748078
1761,2142.74,2.072501102782354
1762,2143.01,9.542517482516416
1763,2144.15,5.309777945051918
1764,2144.76,17.19327654269586
1765,2146.63,5.470604133542373
1766,2147.24,13.026356018805021
1767,2148.67,4.566669607410848
1768,2149.15,14.194456544949647
1769,2150.67,4.046446661550588
1770,2151.13,12.664997981429972
1771,2152.53,6.283941299788844
1772,2153.21,14.078414476518743
1773,2154.71,3.8970608108114857
1774,2155.13,12.916215155082792
1775,2156.58,3.9005273833697798
1776,2157.01,14.48678128748206
1777,2158.62,3.7795882456471976
1778,2159.07,18.152932124205797
1779,2160.74,4.133124755575443
1780,2161.04,21.325373134327148
1781,2162.64,4.878688524591273
1782,2163.04,18.295081967213115
1783,2164.54,6.45414701802909
1784,2165.2,13.858646616545089
1785,2166.55,4.556749350342907
1786,2167.01,15.282178217821782
1787,2168.51,5.4029454749835395
1788,2169.0,17.55132810523465
1789,2170.7,4.180425802355791
1790,2171.05,17.210762331838566
1791,2172.55,5.4672023517879715
1792,2173.09,11.895733088460219
1793,2174.61,3.694195281028839
1794,2175.03,15.506386468475432
1795,2176.52,14.161195219130338
1796,2177.01,43.993920972644375
1797,2178.51,13.582390891834557
1798,2179.0,39.86616487455773
1799,2180.51,13.463537653239458
1800,2181.03,38.546666666661416
1801,2182.5,12.504201680672269
1802,2183.0,37.34448979592325
1803,2184.53,11.08030534351187
1804,2185.01,34.26218978102109
1805,2186.55,12.591143270615857
1806,2187.12,29.843717679951126
1807,2188.51,11.127477906180921
1808,2189.04,33.03785234899631
1809,2190.63,9.732500000000371
1810,2191.11,28.418412698409448
1811,2192.54,8.934386181370233
1812,2193.0,28.468544038346316
1813,2194.5,10.016305125152769
1814,2195.03,28.49178654292276
1815,2196.57,8.664064665123332
1816,2197.04,28.47489167616776
1817,2198.6,7.501127348643936
1818,2199.04,25.918136645966122
1819,2200.57,7.374918463963526
1820,2201.0,26.03470338983427
1821,2202.51,8.530256410252314
1822,2203.04,24.446352357323978
1823,2204.53,8.153766233766543
1824,2205.01,26.870059171597
1825,2206.55,7.463224159928483
1826,2207.06,19.144822934232263
1827,2208.6,4.192401103958678
1828,2209.03,14.523738601822437
1829,2210.69,3.564769694361764
1830,2211.07,14.724988366682176
1831,2212.57,5.339797979795181
1832,2213.16,13.915221238938399
1833,2214.62,4.238017258681807
1834,2215.09,13.60272425249186
1835,2216.57,4.186508273226988
1836,2217.02,13.78334544064376
1837,2218.59,5.776690700684672
1838,2219.26,11.375855641483081
1839,2220.53,5.861397891447361
1840,2221.19,13.106778242678494
1841,2222.61,4.054717749396756
1842,2223.08,12.765253940455825
1843,2224.52,4.62804467158986
1844,2225.05,13.550294860991116
1845,2226.7,4.545824847250509
1846,2227.2,12.51154714360132
1847,2228.7,3.887720797721105
1848,2229.16,11.5537719453833
1849,2230.53,5.773208357739398
1850,2231.18,13.324570976672735
1851,2232.67,8.159069226295369
1852,2233.11,20.866781857449254
1853,2234.52,4.666158599384078
1854,2235.03,13.590486124042926
1855,2236.6,6.4940594059398995
1856,2237.45,9.32764542936576
1857,2238.57,6.607381918517376
1858,2239.39,6.750748959777631
1859,2240.2,4.373821063865341
1860,2240.76,12.19744139316633
1861,2242.25,7.819132697310676
1862,2243.08,13.369500083041645
1863,2244.72,4.061103322157736
1864,2245.24,11.049230769232139
1865,2246.56,4.466794190579087
1866,2247.09,11.539562773266995
1867,2248.55,4.170138888888889
1868,2249.05,12.110933147630792
1869,2250.5,6.3210436079017605
1870,2251.23,12.436137516436677
1871,2252.66,4.075945781916289
1872,2253.11,14.28634267200002
1873,2254.74,5.249636048527773
1874,2255.37,9.966308077887987
1875,2256.5,7.104229390681885
1876,2257.38,8.951372549020473
1877,2258.51,4.356048951046727
1878,2259.08,11.373457346317748
1879,2260.57,6.790522979396586
1880,2261.5,8.992059521925833
1881,2262.63,3.8898821117373084
1882,2263.17,13.525044531527552
1883,2264.77,2.2472142486597138
1884,2265.04,13.357228731532468
1885,2266.66,4.007639383155257
1886,2267.18,11.123206300098577
1887,2268.66,4.045816448154516
1888,2269.15,12.218363671200262
1889,2270.54,5.187747747748831
1890,2271.15,13.60573070607354
1891,2272.64,5.305386766076063
1892,2273.18,15.630301142266239
1893,2274.67,16.488076244264338
1894,2276.63,6.892193919473379
1895,2277.48,9.451590909089987
1896,2278.6,4.964834437087129
1897,2279.21,11.206279032517147
1898,2280.61,4.485148573987789
1899,2281.19,10.69832483612597
1900,2282.59,4.720264856811195
1901,2283.17,10.920756473667648
1902,2284.6,4.05900126600057
1903,2285.14,11.952878914754946
1904,2286.6,4.880158730157991
1905,2287.2,12.436089385477178
1906,2288.86,1.9998400255959046
1907,2289.11,12.541486141812467
1908,2290.63,4.851448450345277
1909,2291.24,13.061085472865965
1910,2292.86,2.04154083204745
1911,2293.12,8.798833686269298
1912,2294.21,4.2478441076396765
1913,2294.75,19.23932688865004
1914,2297.02,0.0
1915,2297.02,10.079193729005105
1916,2298.28,6.8843687434623355
1917,2299.17,11.662086667673261
1918,2300.67,11.04185538881148
1919,2302.16,4.752572145548678
1920,2302.76,13.99650544301796
1921,2304.64,5.052050919376886
1922,2305.24,14.309447054574218
1923,2306.92,2.22899873257085
1924,2307.2,10.602143775904647
1925,2308.6,4.524222548539289
1926,2309.16,8.45405048077036
1927,2310.25,9.66976458546631
1928,2311.42,9.67226837060732
1929,2312.63,4.7313646254267
1930,2313.23,11.047868852457752
1931,2314.66,6.356827452249627
1932,2315.45,9.38332850940724
1933,2316.62,3.7920894371652496
1934,2317.05,13.732059996200224
1935,2318.62,4.389839146362338
1936,2319.17,12.55939393939185
1937,2320.7,2.6282778306405303
1938,2321.03,12.23632687447167
1939,2322.52,6.750047846888872
1940,2323.43,8.895563139933763
1941,2324.63,4.709468822170187
1942,2325.23,10.498786480250299
1943,2326.65,4.4448913839400195
1944,2327.09,35.44022894521223
1945,2328.54,5.220819376449368
1946,2329.04,8.904359569529774
1947,2330.0,6.671431368709614
1948,2330.75,14.587169811322564
1949,2332.51,5.8607823775128
1950,2333.18,11.852599118943669
1951,2334.56,4.513458755429655
1952,2335.01,20.271125827811
1953,2336.87,2.781693461953032
1954,2337.13,14.675133079845466
1955,2338.66,3.239280287885992
1956,2339.02,16.225252239508407
1957,2340.66,4.132530683810359
1958,2341.2,8.721963824290917
1959,2342.25,7.001689141234304
1960,2343.08,12.797768183329133
1961,2344.65,4.305847629588637
1962,2345.15,12.613817718291326
1963,2346.73,14.655257335256753
1964,2348.56,6.838081023453697
1965,2349.37,11.335612970349596
1966,2350.73,11.807732342008979
1967,2352.26,5.985039815052134
1968,2353.09,13.910304768733234
1969,2354.73,2.0555787222682422
1970,2355.01,13.333107947802091
1971,2356.74,3.4752730528226747
1972,2357.15,14.721637168141907
1973,2358.86,2.015811870101133
1974,2359.07,13.388734901462682
1975,2360.51,4.4661374795397455
1976,2361.0,14.348753799390984
1977,2362.64,4.3439392844254225
1978,2363.15,12.400179806360562
1979,2364.64,15.403722353595363
1980,2366.7,2.2970103655239686
1981,2367.01,10.110115118955969
1982,2368.3,17.686728022848293
1983,2370.52,4.8059228143859185
1984,2371.18,4.507333520654601
1985,2371.78,7.76748745202062
1986,2372.79,13.192125279643694
1987,2374.55,4.151444165805887
1988,2375.09,13.03882973294718
1989,2376.67,4.296752136751848
1990,2377.21,12.23901823281938
1991,2378.67,4.127660171033982
1992,2379.22,10.640464065092333
1993,2380.59,6.4732024828046
1994,2381.38,10.692587671865184
1995,2382.74,2.0322149290201765
1996,2383.0,12.412070645555339
1997,2384.59,5.577561534058386
1998,2385.09,18.52381674934201
1999,2386.73,4.657632166789556
2000,2387.08,19.153190271817117
2001,2388.56,8.128845052495656
2002,2389.24,15.836621881000045
2003,2390.56,5.813486502010136
2004,2391.08,19.006344052452327
2005,2392.69,4.822687721560877
2006,2393.09,18.750437710434774
2007,2394.6,5.139637561780132
2008,2395.02,18.24778738392549
2009,2396.54,6.730477759475043
2010,2397.09,17.54060301507559
2011,2398.57,7.224482997914424
2012,2399.14,17.003763955343775
2013,2400.56,6.073725490196832
2014,2401.0,21.558183172001527
2015,2402.62,6.145318352058993
2016,2403.22,13.79428571428642
2017,2404.64,12.02642371834623
2018,2406.17,4.551915519314798
2019,2406.79,12.69359498064357
2020,2408.52,4.73682763886206
2021,2409.06,13.606242820360304
2022,2410.58,5.088493150685813
2023,2411.21,11.243043478260734
2024,2412.73,2.3564262648020664
2025,2413.05,12.382727272724864
2026,2414.64,4.4763625154143565
2027,2415.21,4.252545155994838
2028,2415.76,9.475001456450414
2029,2417.0,12.089462498074564
2030,2418.54,3.9509911034805683
2031,2419.04,12.782275406324406
2032,2420.55,5.723236830954299
2033,2421.31,10.820877225180807
2034,2422.57,4.616448598128484
2035,2423.14,15.291170903692551
2036,2424.91,2.3559802712714655
2037,2425.21,11.06448087431766
2038,2426.61,5.739173553717743
2039,2427.27,11.37601511652337
2040,2428.5,7.874011077361486
2041,2429.43,10.631690599272769
2042,2430.64,4.226839378240381
2043,2431.13,9.041636085624674
2044,2432.16,6.207660969329101
2045,2432.79,15.046735348758059
2046,2434.62,4.190389610389463
2047,2435.14,12.819813218392657
2048,2436.65,14.40396517079732
2049,2438.61,4.16076058772688
2050,2439.11,12.093117583602734
2051,2440.65,4.392982456138172
2052,2441.2,11.255194700275412
2053,2442.6,4.235887230513947
2054,2443.12,12.053756987350479
2055,2444.69,4.170766135271173
2056,2445.22,8.36204217536216
2057,2446.27,10.439655358104623
2058,2447.5,9.43999999999869
2059,2448.68,4.061405273586201
2060,2449.2,10.538495389098834
2061,2450.51,4.151462994836489
2062,2451.01,12.404862586408443
2063,2452.52,3.8501914106483683
2064,2453.0,13.296237256718872
2065,2454.54,4.257132538822679
2066,2455.04,14.270079058649237
2067,2456.7,4.056935988152048
2068,2457.2,12.162945965953813
2069,2458.61,6.428940588348555
2070,2459.34,12.15946037099509
2071,2460.82,2.0004208944007593
2072,2461.05,13.354619481186083
2073,2462.66,3.6108569326964695
2074,2463.08,13.796812417186569
2075,2464.66,4.485773195878453
2076,2465.15,13.6640111940286
2077,2466.54,5.2964772087790415
2078,2467.02,18.145071409324217
2079,2468.71,4.839390994494136
2080,2469.11,18.24450867052142
2081,2470.51,8.246282140370646
2082,2471.16,17.73677419355228
2083,2472.57,6.42445667124874
2084,2473.08,17.921379310345745
2085,2474.5,7.129286898838243
2086,2475.08,16.893939045430848
2087,2476.59,6.457152209489532
2088,2477.12,17.104956346542657
2089,2478.5,6.753399115344902
2090,2479.04,17.567303506650333
2091,2480.56,5.968722704157733
2092,2481.08,15.18220629639147
2093,2482.54,6.9505998033451615
2094,2483.11,16.792836584586958
2095,2484.51,5.371306042882598
2096,2485.0,19.6107133243598
2097,2486.58,5.522053354892018
2098,2487.19,12.546411290320492
2099,2488.72,5.628943661972443
2100,2489.39,10.242750491159443
2101,2490.6,4.109877149879134
2102,2491.09,12.463661769973221
2103,2492.56,5.277209302326684
2104,2493.17,10.70251464623789
2105,2494.55,5.093558378281588
2106,2495.16,11.801818181819725
2107,2496.69,15.86534528865817
2108,2498.69,14.742978222484371
2109,2500.61,4.263786816268997
2110,2501.15,12.335814114791203
2111,2502.63,4.1455544112598695
2112,2503.13,15.636445444317092
2113,2504.93,2.3577647422058137
2114,2505.23,10.714601864587257
2115,2506.6,6.006750555145878
2116,2507.38,11.089258796213148
2117,2508.69,2.8078841512462533
2118,2509.04,12.621899966431391
2119,2510.58,12.392284263958182
2120,2511.14,23.06213552361978
2121,2512.51,7.239204160072349
2122,2513.26,7.109304143859967
2123,2514.06,6.141974544205609
2124,2514.8,15.133709449927185
2125,2516.6,4.44578707916272
2126,2517.12,12.633966699315044
2127,2518.54,4.101172022686532
2128,2519.01,13.518704395799196
2129,2520.61,6.725412278958871
2130,2521.36,7.053932253311192
2131,2522.18,5.0114206128164085
2132,2522.78,11.27693654266945
2133,2524.3,6.935088481835214
2134,2525.18,10.964394023244843
2135,2526.65,4.712007712699849
2136,2527.12,13.85692123150707
2137,2528.66,3.9863340219291277
2138,2529.16,13.434244604316078
2139,2530.72,4.301360856271189
2140,2531.21,12.771851851852007
2141,2532.69,3.7733380108737595
2142,2533.14,11.593846153847238
2143,2534.5,6.799398496242555
2144,2535.26,11.30206896551452
2145,2536.62,4.269632314863818
2146,2537.21,10.991847739889847
2147,2538.59,4.169180327866849
2148,2539.12,15.979999999999068
2149,2540.99,13.149183955743151
2150,2542.57,4.99486959628177
2151,2543.16,13.423643396573485
2152,2544.72,4.3393688007232285
2153,2545.23,10.226926268753594
2154,2546.51,12.350461485673264
2155,2548.0,6.078817733990148
2156,2548.75,12.66903788013516
2157,2550.25,6.951203438396803
2158,2551.07,12.297111340917077
2159,2552.55,5.933413173651386
2160,2553.21,11.402290076337472
2161,2554.51,6.17972502291304
2162,2555.23,12.870946196658597
2163,2556.72,3.4623014586733323
2164,2557.15,12.094821683308174
2165,2558.58,4.586748939452211
2166,2559.1,9.144058988765266
2167,2560.19,4.783054187191518
2168,2560.77,13.876692611967687
2169,2562.7,3.9502518277841974
2170,2563.19,7.648173763930762
2171,2564.2,4.611097660724374
2172,2564.77,13.782237799945273
2173,2566.64,4.163806879532654
2174,2567.17,13.21515851200262
2175,2568.71,2.380041188584459
2176,2569.02,13.402801120447418
2177,2570.62,4.425480785366375
2178,2571.16,12.803446650958824
2179,2572.72,3.859237233355027
2180,2573.2,14.158589225046246
2181,2574.96,2.1735891175424946
2182,2575.22,10.169708063754154
2183,2576.5,4.440631923006926
2184,2577.02,12.873163761073215
2185,2578.72,4.177789252864143
2186,2579.24,10.69469686875743
2187,2580.55,4.668868841082126
2188,2581.11,12.51936773038985
2189,2582.73,14.402498229711409
2190,2584.64,4.956363636363014
2191,2585.22,8.842171281864914
2192,2586.25,6.262251963923275
2193,2587.07,13.672040107980624
2194,2588.62,4.666850172037435
2195,2589.21,11.658112475758074
2196,2590.66,6.0462861271679404
2197,2591.37,10.55113608992438
2198,2592.54,5.842558970693815
2199,2593.23,12.970298886501594
2200,2594.69,17.89358804614855
2201,2596.74,3.8953622648561526
2202,2597.19,12.185378670789216
2203,2598.57,4.395875831483549
2204,2599.08,12.150910704775892
2205,2600.52,21.418455568491137
2206,2602.94,12.38852051006242
2207,2604.52,15.094952891723576
2208,2606.5,7.387700955593831
2209,2607.17,10.278417841364528
2210,2608.28,6.891192197744226
2211,2609.12,11.717734645040546
2212,2610.72,2.81105367793566
2213,2611.05,13.088165199726635
2214,2612.64,4.19117259996805
2215,2613.15,12.940302661330128
2216,2614.7,3.3746228926360824
2217,2615.1,15.12252998909472
2218,2616.87,2.5122036595085575
2219,2617.15,12.816162268890471
2220,2618.66,4.116690140847057
2221,2619.15,14.041159420287125
2222,2620.74,6.2139184093246485
2223,2621.49,9.851499292787032
2224,2622.66,4.118521623168549
2225,2623.13,12.493506493506494
2226,2624.63,3.954464343860172
2227,2625.12,11.608015170670328
2228,2626.58,6.046606133287797
2229,2627.31,12.291620458068
2230,2628.79,2.027115858668858
2231,2629.04,11.73470766289832
2232,2630.51,4.186058513536206
2233,2631.0,12.78229998301492
2234,2632.55,4.654429992346654
2235,2633.08,8.713725490195358
2236,2634.18,6.622681678608507
2237,2635.1,11.360497822029057
2238,2636.54,4.59519090170725
2239,2637.11,12.761739130434336
2240,2638.67,4.3148284118113605
2241,2639.21,12.805894074460376
2242,2640.74,2.082524877472549
2243,2641.01,13.82667645439249
2244,2642.62,4.851843917367164
2245,2643.24,13.184612644701973
2246,2644.95,13.005849695331513
2247,2646.53,4.953961444471789
2248,2647.2,10.471983675851643
2249,2648.57,5.388167888073429
2250,2649.23,10.392881355933024
2251,2650.61,3.6491007845502645
2252,2651.13,8.257657852130873
2253,2652.25,6.3918120805385525
2254,2653.03,13.055980184003364
2255,2654.58,3.918514920196433
2256,2655.05,14.108538011693163
2257,2656.64,6.944975086239619
2258,2657.43,9.864331797235636
2259,2658.6,4.86564020995807
2260,2659.21,10.928333333332084
2261,2660.64,4.320265692462607
2262,2661.17,11.570106365568957
2263,2662.6,13.437222222222509
2264,2664.31,4.887528367045281
2265,2665.0,11.550198007920955
2266,2666.65,3.8285680445320343
2267,2667.2,10.23562343793649
2268,2668.57,6.651962931760293
2269,2669.38,10.020738243719915
2270,2670.6,4.632807383149045
2271,2671.2,13.381390513322831
2272,2672.86,2.7065335235353416
2273,2673.18,9.102429516186387
2274,2674.27,7.161061946901889
2275,2675.12,8.404278296990817
2276,2676.28,6.364088254379979
2277,2677.07,12.575726495726347
2278,2678.59,4.3595020164824
2279,2679.11,9.99952095808429
2280,2680.3,7.375085678351162
2281,2681.23,11.169716231555189
2282,2682.71,4.916768937425376
2283,2683.3,11.514165316044062
2284,2684.73,2.138922852985517
2285,2685.01,13.10917572069962
2286,2686.73,2.3224178290842046
2287,2687.02,14.069433205148004
2288,2688.74,4.557681755831411
2289,2689.29,13.068794982828553
2290,2690.98,11.405363357216869
2291,2692.36,5.976856331936346
2292,2693.17,8.905597826086357
2293,2694.25,6.904384176886595
2294,2695.08,12.49818909454891
2295,2696.61,4.575067630162708
2296,2697.14,8.855274463008175
2297,2698.25,6.379779338015679
2298,2699.03,12.960293091414325
2299,2700.58,9.698710708576572
2300,2701.14,29.276030714706597
2301,2702.7,6.941437371665238
2302,2703.46,8.702278127183483
2303,2704.5,6.350926954291508
2304,2705.18,12.586171328674943
2305,2706.51,13.984966442951656
2306,2707.07,41.326698564593805
2307,2708.55,6.491442453689012
2308,2709.11,18.152353297032327
2309,2710.68,3.9569243059721306
2310,2711.12,13.01730821518967
2311,2712.59,5.911465651497102
2312,2713.3,12.40594168636608
2313,2714.69,15.535271149674344
2314,2716.73,2.4632642748877993
2315,2717.03,9.56719027275582
2316,2718.21,4.416895830429203
2317,2718.8,14.51960102960059
2318,2720.61,15.137422566369782
2319,2722.64,4.360251374706863
2320,2723.19,12.207990100758588
2321,2724.64,14.2191857744516
2322,2726.44,2.4849799196782776
2323,2726.75,12.045639039505836
2324,2728.28,7.435389560690449
2325,2729.23,9.702215751928817
2326,2730.5,4.760082377168918
2327,2731.12,10.77544997847048
2328,2732.54,4.600058668230456
2329,2733.14,12.568078219826322
2330,2734.67,3.5522089227422455
2331,2735.15,12.868408488063068
2332,2736.73,4.254695153723926
2333,2737.24,7.7307220852418945
2334,2738.16,7.067406380028453
2335,2739.06,12.2921802237672
2336,2740.64,4.859890975167408
2337,2741.06,18.76476043276555
2338,2742.66,5.501602497401121
2339,2743.32,11.765656565654096
2340,2744.62,4.1022536158762195
2341,2745.12,12.134188653216373
2342,2746.58,4.470423179567296
2343,2747.09,11.622903924872126
2344,2748.25,7.432651329744429
2345,2749.17,6.677044215625614
2346,2750.12,5.354765342960713
2347,2750.81,10.347831715209171
2348,2752.24,4.064732824430894
2349,2752.76,14.778304607806668
2350,2754.52,16.85072590738509
2351,2756.65,4.182982405535855
2352,2757.2,13.818135649850095
2353,2758.89,2.247577319589235
2354,2759.17,11.891061007957855
2355,2760.63,3.782692935121786
2356,2761.16,11.014335086401768
2357,2762.58,16.446707253437506
2358,2764.55,6.464357848517301
2359,2765.42,9.247938071780574
2360,2766.65,4.353526570047885
2361,2767.21,13.31590755355116
2362,2768.98,1.8835171048911508
2363,2769.23,10.993318796337093
2364,2770.67,4.337064110245233
2365,2771.23,12.376466587315083
2366,2772.73,3.8241093918660325
2367,2773.18,16.403346434590155
2368,2775.07,11.49792364366872
2369,2776.27,6.262010491988676
2370,2777.1,12.090917694779854
2371,2778.57,6.234989648033126
2372,2779.32,11.897771293086636
2373,2780.71,3.3027073046150877
2374,2781.11,15.231616647321278
2375,2782.98,8.860683894543051
2376,2784.2,4.272343632254616
2377,2784.75,14.174757094756949
2378,2786.52,4.79995047972864
2379,2787.13,11.68804768276263
2380,2788.79,2.0929051620646852
2381,2789.06,10.993318796337093
2382,2790.5,5.052561505065999
2383,2791.13,8.94072964792011
2384,2792.25,6.193186524718848
2385,2793.06,12.095855855855433
2386,2794.62,16.046744376949746
2387,2796.6,6.657131669119068
2388,2797.01,18.019435028246832
2389,2798.69,15.776561922365364
2390,2800.52,15.394262052647147
2391,2802.52,4.5174635383647646
2392,2803.15,9.94390780235886
2393,2804.51,4.369957547968694
2394,2805.04,12.158057663125522
2395,2806.6,4.545615830775983
2396,2807.15,9.437298757429499
2397,2808.26,7.043065318017419
2398,2809.11,10.889920462760864
2399,2810.54,6.078029903252968
2400,2811.18,13.586945126947285
2401,2812.67,4.745026178008553
2402,2813.12,10.50872168706066
2403,2814.12,4.6886341287929305
2404,2814.79,13.984035208362798
2405,2816.67,15.568089887638617
2406,2818.68,16.338367346938924
2407,2820.66,4.0133981137483
2408,2821.19,12.86953528399085
2409,2822.74,2.4978023879579085
2410,2823.04,9.324785100285762
2411,2824.14,4.809075882797572
2412,2824.76,14.909510032663484
2413,2826.65,4.544950130427541
2414,2827.23,11.637488187774547
2415,2828.72,2.2574871329127326
2416,2829.01,11.613361663376658
2417,2830.5,3.9997383483235245
2418,2831.04,13.930781521362192
2419,2832.71,14.716104868914563
2420,2834.61,4.5348616063825355
2421,2835.16,11.55947556615093
2422,2836.56,4.755723270439788
2423,2837.12,12.996268656716419
2424,2838.62,3.7064565327932995
2425,2839.07,13.683139277816057
2426,2840.66,3.5028598894532927
2427,2841.01,16.03939440595292
2428,2842.55,11.463728436280414
2429,2843.19,31.293402705517565
2430,2845.03,0.0
2431,2845.03,10.711584584932332
2432,2846.58,4.901312367705717
2433,2847.21,7.0866377063410635
2434,2848.14,4.448693361434016
2435,2848.75,14.654183363692411
2436,2850.63,4.627486548806184
2437,2851.22,10.458934550990481
2438,2852.56,4.785496183205382
2439,2853.16,10.86553332330445
2440,2854.56,4.526887028060467
2441,2855.15,12.953224119900126
2442,2856.7,2.384418192560668
2443,2857.01,11.315329405463043
2444,2858.55,4.715440167111764
2445,2859.16,11.583337386840824
2446,2860.73,1.1309955920351218
2447,2860.875,13.92707224334487
2448,2862.66,13.007448920024107
2449,2864.54,4.84609658839251
2450,2865.17,12.051354492623627
2451,2866.73,2.3152416356891363
2452,2867.03,12.852574850298275
2453,2868.69,11.793113435235725
2454,2870.16,5.135298692118428
2455,2870.77,14.585218125528133
2456,2872.71,5.700047631646724
2457,2873.49,9.33100485100773
2458,2874.61,3.989798736594542
2459,2875.13,15.686811468289356
2460,2877.01,0.0
2461,2877.01,9.060315952011402
2462,2878.31,6.609946754927938
2463,2879.18,12.156262135921905
2464,2880.74,4.504380061185792
2465,2881.27,11.004197745014373
2466,2882.59,4.183406113537118
2467,2883.09,11.397922247630316
2468,2884.5,7.675020394842714
2469,2885.45,9.203658864675813
2470,2886.7,2.458029745252325
2471,2887.02,11.725007025163642
2472,2888.65,13.211824265347826
2473,2890.38,5.8843487810224655
2474,2891.0,34.77748107363804
2475,2892.64,4.74284309709119
2476,2893.16,8.05345502947392
2477,2894.08,7.651372743832205
2478,2895.02,11.660029368575485
2479,2896.54,4.98724842074405
2480,2897.19,4.449004065039867
2481,2897.81,7.268672411277098
2482,2898.76,12.833918849510233
2483,2900.54,15.259382679055014
2484,2902.51,4.49411327762287
2485,2903.03,13.679791317308853
2486,2904.61,4.101772939346668
2487,2905.13,10.94367552271742
2488,2906.51,4.121972566947795
2489,2907.02,12.960438623209342
2490,2908.68,3.9302530099480375
2491,2909.15,12.502501173892053
2492,2910.73,2.8629212642597013
2493,2911.06,16.007387687189286
2494,2912.67,17.868367268534065
2495,2914.7,18.03176413413442
2496,2916.94,1.9975237765847302
2497,2917.18,11.250689343225567
2498,2918.5,4.215726785209863
2499,2919.06,13.129170832614461
2500,2920.64,4.385922746780689
2501,2921.2,11.11289229786136
2502,2922.59,3.898413685848073
2503,2923.03,14.06337938363223
2504,2924.54,4.915358649790885
2505,2925.07,13.903777335981648
2506,2926.62,5.436663070840609
2507,2927.26,12.507332457290277
2508,2928.58,3.6841992746713768
2509,2929.0,13.925941090455325
2510,2930.51,6.616472166327484
2511,2931.2,12.084596319942765
2512,2932.59,5.4510091743113955
2513,2933.15,13.814175378707231
2514,2934.63,4.27396761870111
2515,2935.13,14.055444151275458
2516,2936.61,5.414367659109533
2517,2937.11,15.847689075630251
2518,2938.61,7.681492982980829
2519,2939.28,18.47010765918094
2520,2940.86,2.196377868704638
2521,2941.12,13.921412639406306
2522,2942.73,4.414372294373961
2523,2943.26,12.835871053947844
2524,2944.83,2.473487187648777
2525,2945.14,10.545105105106092
2526,2946.5,6.264751697032807
2527,2947.24,10.155297174409034
2528,2948.5,4.348946034047497
2529,2949.01,13.194772514510234
2530,2950.53,4.320345655304558
2531,2951.07,13.799385494816654
2532,2952.7,15.892038392713944
2533,2954.67,15.02476190476002
2534,2956.7,16.032128514056225
2535,2958.7,12.468197994178105
2536,2960.25,7.13946162128789
2537,2961.16,12.96593419506505
2538,2962.85,2.275496863652996
2539,2963.13,11.670648722213823
2540,2964.63,4.118285036434502
2541,2965.13,13.507603160664505
2542,2966.74,2.174003241494601
2543,2967.01,13.684019233956551
2544,2968.69,2.475059760955739
2545,2969.0,13.749449040110651
2546,2970.74,2.2252662290317735
2547,2971.0,14.24182156763177
2548,2972.73,4.079968835216528
2549,2973.19,13.024454685100007
2550,2974.67,4.674841909483264
2551,2975.18,12.283422619048249
2552,2976.6,5.019563651768355
2553,2977.14,13.089186602872891
2554,2978.63,5.0346175963176885
2555,2979.08,17.073608247424914
2556,2980.61,6.613975585614862
2557,2981.15,17.84990647731025
2558,2982.56,6.111916790490826
2559,2983.02,21.23686457120932
2560,2984.57,5.7000074046627685
2561,2985.0,22.375310233684562
2562,2986.59,11.239064005500449
2563,2987.12,27.810491118079188
2564,2988.75,3.962430939228922
2565,2989.05,19.890725126474415
2566,2990.65,5.55586206896268
2567,2991.22,13.172479446128074
2568,2992.62,5.057683268047406
2569,2993.08,16.792759330003143
2570,2994.56,6.44168067226828
2571,2995.12,17.512439418420094
2572,2996.57,6.867601246105919
2573,2997.07,19.797295690933208
2574,2998.56,6.923585038813931
2575,2999.1,19.174417643004595
2576,3000.62,4.856268316510384
2577,3001.02,18.201726804126345
2578,3002.53,6.477869822482203
2579,3003.04,19.669535488666163
2580,3004.52,7.645544554457975
2581,3005.07,21.43845203787567
2582,3006.57,4.378916646053243
2583,3007.0,12.457766567303025
2584,3008.28,6.403083421326803
2585,3008.97,14.044682809689416
2586,3010.53,4.711325301202814
2587,3011.0,16.452573463933973
2588,3012.72,3.963730378578337
2589,3013.18,12.142686114797328
2590,3014.57,7.099599271401928
2591,3015.4,11.6867966345144
2592,3016.68,4.314754683320313
2593,3017.19,12.635063520871299
2594,3018.67,3.7934567691526695
2595,3019.13,12.670224119530417
2596,3020.63,4.097315436241611
2597,3021.13,14.97109386026603
2598,3022.91,2.127141568981064
2599,3023.16,12.507992837377344
2600,3024.71,4.034056928368477
2601,3025.22,8.505217983652878
2602,3026.25,8.134149221685762
2603,3027.21,12.2209162353832
2604,3028.6,4.112808155700434
2605,3029.02,14.289606440073824
2606,3030.51,6.750770434099457
2607,3031.0,21.926224256291427
2608,3032.62,4.90476843911218
2609,3033.01,17.82683657215413
2610,3034.5,8.829960474307706
2611,3035.04,26.854331337327146
2612,3036.67,6.625408560308934
2613,3037.08,23.320842911877975
2614,3038.54,7.307619634423514
2615,3039.34,10.268621334994727
2616,3040.64,4.455540433612478
2617,3041.2,10.85809330628938
2618,3042.52,4.215526409074796
2619,3043.02,13.671051136362715
2620,3044.64,4.300703792278633
2621,3045.16,12.487270145545061
2622,3046.64,4.206292134831051
2623,3047.2,10.723330018469081
2624,3048.62,4.8199733155448845
2625,3049.21,10.431032028470575
2626,3050.59,4.593156699467691
2627,3051.18,11.217065139584962
2628,3052.66,3.0261654135363756
2629,3053.05,11.343112391930072
2630,3054.67,10.761904761904763
2631,3056.17,4.694513323209429
2632,3056.8,14.860309230045683
2633,3058.68,2.7154925533837684
2634,3059.0,14.33801521053482
2635,3060.66,15.944531921932152
2636,3062.62,4.161257861637228
2637,3063.11,14.188161993768663
2638,3064.71,5.195673166199917
2639,3065.24,11.73149247975655
2640,3066.57,6.600740740738311
2641,3067.41,6.706484351262008
2642,3068.27,6.460195852533872
2643,3069.12,12.62089005235558
2644,3070.68,14.397136429802046
2645,3072.65,4.201742286751077
2646,3073.19,14.195723684210526
2647,3074.94,2.0755463775598004
2648,3075.19,12.738947368420753
2649,3076.73,14.509090909091604
2650,3078.63,19.894175180035504
2651,3081.06,34.094441087618705
2652,3082.55,8.15157894736522
2653,3083.43,9.49243830207364
2654,3084.6,4.672999843187604
2655,3085.19,10.819075144507941
2656,3086.54,4.482380870462455
2657,3087.08,11.497126260036534
2658,3088.47,2.356764608785176
2659,3088.76,10.306385737437171
2660,3090.04,6.075508567262433
2661,3090.75,16.9297728574141
2662,3092.68,3.999218926023598
2663,3093.14,12.015508080998558
2664,3094.53,4.30091343397477
2665,3095.02,14.828912046687291
2666,3096.63,5000.96
2667,3097.27,1.9200000000003001
2668,3098.55,0.7649999999996453
2669,3099.06,2.2950000000003
2670,3100.59,0.7649999999996453
2671,3101.1,2.2799999999999727
2672,3102.62,0.8099999999999454
2673,3103.16,2.205000000000382
2674,3104.63,0.6749999999997272
2675,3105.08,2.3099999999999454
2676,3106.62,0.5850000000004911
2677,3107.01,2.2349999999996726
2678,3108.5,0.9450000000001637
2679,3109.13,2.174999999999727
2680,3110.58,0.7799999999999727
2681,3111.1,2.115000000000464
2682,3112.51,1.004999999999427
2683,3113.18,2.1450000000004366
2684,3114.61,0.584999999999809
2685,3115.0,2.3099999999999454
2686,3116.54,0.75
2687,3117.04,2.3850000000002183
2688,3118.63,0.6300000000001091
2689,3119.05,2.174999999999727
2690,3120.5,0.8699999999998909
2691,3121.08,2.2350000000003547
2692,3122.57,0.6449999999997544
2693,3123.0,2.2799999999999727
2694,3124.52,0.8550000000002456
2695,3125.09,2.25
2696,3126.59,0.6449999999997544
2697,3127.02,2.4750000000001364
2698,3128.67,0.540000000000191
2699,3129.03,2.2049999999997
2700,3130.5,0.8699999999998909
2701,3131.08,2.2799999999999727
2702,3132.6,0.6000000000001364
2703,3133.0,2.5199999999997544
2704,3134.68,0.8099999999999454
2705,3135.22,2.040000000000191
2706,3136.58,0.6450000000004366
2707,3137.01,2.4449999999994816
2708,3138.64,0.8399999999999181
2709,3139.2,1.9650000000006003
2710,3140.51,1.3049999999998363
2711,3141.38,1.9949999999998909
2712,3142.71,0.6600000000000819
2713,3143.15,2.339999999999918
2714,3144.71,0.9899999999997817
2715,3145.37,1.830000000000382
2716,3146.59,0.8999999999998636
2717,3147.19,1.9800000000002456
2718,3148.51,1.1999999999995907
2719,3149.31,2.040000000000191
2720,3150.67,0.794999999999618
2721,3151.2,2.0550000000005184
2722,3152.57,1.1099999999996726
2723,3153.31,2.0249999999998636
2724,3154.66,0.8550000000002456
2725,3155.23,1.2749999999998636
2726,3156.08,1.3049999999998363
2727,3156.95,2.535000000000082
2728,3158.64,1.2600000000002183
2729,3159.48,1.8299999999996999
2730,3160.7,0.870000000000573
2731,3161.28,1.9799999999995634
2732,3162.6,0.8699999999998909
2733,3163.18,2.325000000000273
2734,3164.73,0.42000000000030013
2735,3165.01,2.2349999999996726
2736,3166.5,0.8399999999999181
2737,3167.06,2.6549999999999727
2738,3168.83,0.375
2739,3169.08,2.4299999999998363
2740,3170.7,0.495000000000573
2741,3171.03,2.414999999999509
2742,3172.64,3.0299999999999727
2743,3174.66,0.8399999999999181
2744,3175.22,2.2950000000003
2745,3176.75,0.9450000000001637
2746,3177.38,1.9799999999995634
2747,3178.7,0.46500000000060027
2748,3179.01,2.669999999999618
2749,3180.79,0.42000000000030013
2750,3181.07,2.4899999999997817
2751,3182.73,0.5249999999998636
2752,3183.08,2.4750000000001364
2753,3184.73,0.4049999999999727
2754,3185.0,2.2950000000003
2755,3186.53,1.3199999999994816
2756,3187.41,1.6500000000005457
2757,3188.51,1.1399999999996453
2758,3189.27,2.3099999999999454
2759,3190.81,0.375
2760,3191.06,2.4299999999998363
2761,3192.68,0.75
2762,3193.18,2.040000000000191
2763,3194.54,0.7799999999999727
2764,3195.06,2.3550000000002456
2765,3196.63,0.7799999999999727
2766,3197.15,2.3549999999995634
2767,3198.72,2.9250000000004093
2768,3200.67,0.8549999999995634
2769,3201.24,2.115000000000464
2770,3202.65,0.8099999999999454
2771,3203.19,2.040000000000191
2772,3204.55,1.1849999999999454
2773,3205.34,1.8899999999996453
2774,3206.6,0.7799999999999727
2775,3207.12,2.2650000000003274
2776,3208.63,0.6449999999997544
2777,3209.06,2.3099999999999454
2778,3210.6,0.7950000000003001
2779,3211.13,2.384999999999536
2780,3212.72,0.7799999999999727
2781,3213.24,2.0100000000002183
2782,3214.58,1.1849999999999454
2783,3215.37,1.2000000000002728
2784,3216.17,0.8999999999998636
2785,3216.77,2.7749999999998636
2786,3218.62,0.7650000000003274
2787,3219.13,2.2799999999999727
2788,3220.65,1.1999999999995907
2789,3221.45,2.0100000000002183
2790,3222.79,0.42000000000030013
2791,3223.07,1.709999999999809
2792,3224.21,0.8399999999999181
2793,3224.77,2.6400000000003274
2794,3226.53,0.8099999999999454
2795,3227.07,2.174999999999727
2796,3228.52,0.8550000000002456
2797,3229.09,1.7699999999997544
2798,3230.27,1.6799999999998363
2799,3231.39,1.2300000000002456
2800,3232.21,1.2749999999998636
2801,3233.06,1.7850000000000819
2802,3234.25,1.4849999999996726
2803,3235.24,2.0100000000002183
2804,3236.58,0.8099999999999454
2805,3237.12,1.6950000000001637
2806,3238.25,1.1700000000003001
2807,3239.03,2.2799999999999727
2808,3240.55,0.75
2809,3241.05,2.1900000000000546
2810,3242.51,0.9299999999998363
2811,3243.13,2.2649999999996453
2812,3244.64,0.7950000000003001
2813,3245.17,2.1149999999997817
2814,3246.58,0.7799999999999727
2815,3247.1,2.3999999999998636
2816,3248.7,0.705000000000382
2817,3249.17,2.339999999999918
2818,3250.73,0.45000000000027285
2819,3251.03,2.4449999999994816
2820,3252.66,0.75
2821,3253.16,2.2950000000003
2822,3254.69,0.7649999999996453
2823,3255.2,1.455000000000382
2824,3256.17,1.1999999999995907
2825,3256.97,2.5950000000000273
2826,3258.7,0.7350000000003547
2827,3259.19,2.040000000000191
2828,3260.55,0.8549999999995634
2829,3261.12,2.205000000000382
2830,3262.59,1.1099999999996726
2831,3263.33,2.0100000000002183
2832,3264.67,0.794999999999618
2833,3265.2,2.2200000000000273
2834,3266.68,0.5100000000002183
2835,3267.02,2.3099999999999454
2836,3268.56,0.7350000000003547
2837,3269.05,2.1900000000000546
2838,3270.51,0.8099999999999454
2839,3271.05,2.2200000000000273
2840,3272.53,0.75
2841,3273.03,2.3549999999995634
2842,3274.6,0.7200000000000273
2843,3275.08,2.2950000000003
2844,3276.61,0.7049999999996999
2845,3277.08,2.130000000000109
2846,3278.5,0.7950000000003001
2847,3279.03,2.2200000000000273
2848,3280.51,0.75
2849,3281.01,2.3099999999999454
2850,3282.55,0.7200000000000273
2851,3283.03,2.2349999999996726
2852,3284.52,0.7350000000003547
2853,3285.01,2.25
2854,3286.51,0.8099999999999454
2855,3287.05,2.1900000000000546
2856,3288.51,0.7349999999996726
2857,3289.0,2.2650000000003274
2858,3290.51,0.8099999999999454
2859,3291.05,2.25
2860,3292.55,0.6900000000000546
2861,3293.01,2.2799999999999727
2862,3294.53,0.7799999999999727
2863,3295.05,2.174999999999727
2864,3296.5,0.7799999999999727
2865,3297.02,2.2200000000000273
2866,3298.5,0.8099999999999454
2867,3299.04,2.205000000000382
2868,3300.51,0.8549999999995634
2869,3301.08,2.25
2870,3302.58,0.7200000000000273
2871,3303.06,2.2650000000003274
2872,3304.57,0.8249999999995907
2873,3305.12,2.3999999999998636
2874,3306.72,1.080000000000382
2875,3307.44,1.1999999999995907
2876,3308.24,0.7650000000003274
2877,3308.75,2.6849999999999454
2878,3310.54,0.7350000000003547
2879,3311.03,2.5349999999993997
2880,3312.72,0.7650000000003274
2881,3313.23,1.5299999999999727
2882,3314.25,1.2300000000002456
2883,3315.07,2.459999999999809
2884,3316.71,2.8500000000001364
2885,3318.61,0.75
2886,3319.11,2.2049999999997
2887,3320.58,0.75
2888,3321.08,2.3850000000002183
2889,3322.67,0.7799999999999727
2890,3323.19,2.294999999999618
2891,3324.72,2.790000000000191
2892,3326.58,0.7200000000000273
2893,3327.06,2.1750000000004093
2894,3328.51,0.75
2895,3329.01,2.549999999999727
2896,3330.71,0.7349999999996726
2897,3331.2,2.2350000000003547
2898,3332.69,0.7200000000000273
2899,3333.17,2.1449999999997544
2900,3334.6,0.8399999999999181
2901,3335.16,2.160000000000082
2902,3336.6,0.6900000000000546
2903,3337.06,2.2200000000000273
2904,3338.54,0.7350000000003547
2905,3339.03,2.2200000000000273
2906,3340.51,0.8999999999998636
2907,3341.11,2.459999999999809
2908,3342.75,0.42000000000030013
2909,3343.03,2.2649999999996453
2910,3344.54,0.8550000000002456
2911,3345.11,2.294999999999618
2912,3346.64,0.6300000000001091
2913,3347.06,2.2200000000000273
2914,3348.54,0.7950000000003001
2915,3349.07,2.759999999999536
2916,3350.91,2.490000000000464
2917,3352.57,0.7799999999999727
2918,3353.09,2.7299999999995634
2919,3354.91,0.375
2920,3355.16,2.085000000000491
2921,3356.55,0.6900000000000546
2922,3357.01,2.3099999999999454
2923,3358.55,0.8099999999999454
2924,3359.09,2.174999999999727
2925,3360.54,0.9450000000001637
2926,3361.17,2.2799999999999727
2927,3362.69,0.7049999999996999
2928,3363.16,2.205000000000382
2929,3364.63,0.7200000000000273
2930,3365.11,2.130000000000109
2931,3366.53,0.75
2932,3367.03,2.2349999999996726
2933,3368.52,1.0499999999997272
2934,3369.22,2.1900000000000546
2935,3370.68,0.7200000000000273
2936,3371.16,2.160000000000082
2937,3372.6,0.7799999999999727
2938,3373.12,2.160000000000082
2939,3374.56,0.7200000000000273
2940,3375.04,2.6700000000003
2941,3376.82,0.4049999999999727
2942,3377.09,2.2049999999997
2943,3378.56,0.75
2944,3379.06,2.205000000000382
2945,3380.53,0.8099999999999454
2946,3381.07,2.3549999999995634
2947,3382.64,0.7350000000003547
2948,3383.13,2.294999999999618
2949,3384.66,0.7650000000003274
2950,3385.17,2.2649999999996453
2951,3386.68,0.7799999999999727
2952,3387.2,1.6050000000002456
2953,3388.27,1.2000000000002728
2954,3389.07,2.369999999999891
2955,3390.65,0.7799999999999727
2956,3391.17,2.6999999999995907
2957,3392.97,0.375
2958,3393.22,1.5450000000003001
2959,3394.25,1.1549999999999727
2960,3395.02,2.744999999999891
2961,3396.85,0.3900000000003274
2962,3397.11,2.339999999999918
2963,3398.67,0.7649999999996453
2964,3399.18,2.325000000000273
2965,3400.73,1.1099999999996726
2966,3401.47,1.6500000000005457
2967,3402.57,0.794999999999618
2968,3403.1,2.3099999999999454
2969,3404.64,1.1549999999999727
2970,3405.41,1.9800000000002456
2971,3406.73,0.7200000000000273
2972,3407.21,2.2049999999997
2973,3408.68,0.6300000000001091
2974,3409.1,2.369999999999891
2975,3410.68,0.7350000000003547
2976,3411.17,2.3099999999999454
2977,3412.71,0.7649999999996453
2978,3413.22,1.9800000000002456
2979,3414.54,0.8850000000002183
2980,3415.13,2.414999999999509
2981,3416.74,0.40500000000065484
2982,3417.01,2.3999999999998636
2983,3418.61,0.7649999999996453
2984,3419.12,2.3850000000002183
2985,3420.71,2.9700000000000273
2986,3422.69,1.1999999999995907
2987,3423.49,1.620000000000573
2988,3424.57,0.794999999999618
2989,3425.1,2.369999999999891
2990,3426.68,0.7950000000003001
2991,3427.21,2.0700000000001637
2992,3428.59,0.8099999999999454
2993,3429.13,2.3999999999998636
2994,3430.73,0.46499999999991815
2995,3431.04,2.369999999999891
2996,3432.62,0.7950000000003001
2997,3433.15,2.3249999999995907
2998,3434.7,0.8099999999999454
2999,3435.24,2.0550000000005184
3000,3436.61,0.7799999999999727
3001,3437.13,2.2799999999999727
3002,3438.65,0.6300000000001091
3003,3439.07,2.3549999999995634
3004,3440.64,0.7950000000003001
3005,3441.17,2.0549999999998363
3006,3442.54,0.7799999999999727
3007,3443.06,2.369999999999891
3008,3444.64,1.1700000000003001
3009,3445.42,1.9649999999999181
3010,3446.73,0.4049999999999727
3011,3447.0,2.880000000000109
3012,3448.92,0.3899999999996453
3013,3449.18,1.6050000000002456
3014,3450.25,1.2000000000002728
3015,3451.05,2.3549999999995634
3016,3452.62,0.7950000000003001
3017,3453.15,2.339999999999918
3018,3454.71,0.7799999999999727
3019,3455.23,2.1449999999997544
3020,3456.66,0.7799999999999727
3021,3457.18,1.9800000000002456
3022,3458.5,0.7950000000003001
3023,3459.03,2.3099999999999454
3024,3460.57,0.6900000000000546
3025,3461.03,2.5199999999997544
3026,3462.71,0.6300000000001091
3027,3463.13,2.1449999999997544
3028,3464.56,0.7650000000003274
3029,3465.07,2.25
3030,3466.57,0.7349999999996726
3031,3467.06,2.25
3032,3468.56,0.7350000000003547
3033,3469.05,2.3549999999995634
3034,3470.62,0.9750000000001364
3035,3471.27,2.0700000000001637
3036,3472.65,0.584999999999809
3037,3473.04,2.325000000000273
3038,3474.59,0.7049999999996999
3039,3475.06,2.2350000000003547
3040,3476.55,0.7200000000000273
3041,3477.03,2.3549999999995634
3042,3478.6,1.0950000000000273
3043,3479.33,1.8600000000003547
3044,3480.57,0.75
3045,3481.07,2.2799999999999727
3046,3482.59,1.1999999999995907
3047,3483.39,2.2200000000000273
3048,3484.87,0.75
3049,3485.37,1.875
3050,3486.62,0.75
3051,3487.12,2.2799999999999727
3052,3488.64,0.7650000000003274
3053,3489.15,2.0700000000001637
3054,3490.53,0.7799999999999727
3055,3491.05,2.7299999999995634
3056,3492.87,0.3900000000003274
3057,3493.13,2.6399999999996453
3058,3494.89,0.3900000000003274
3059,3495.15,2.744999999999891
3060,3496.98,0.3899999999996453
3061,3497.24,1.9350000000006276
3062,3498.53,0.794999999999618
3063,3499.06,2.369999999999891
3064,3500.64,0.7200000000000273
3065,3501.12,2.2350000000003547
3066,3502.61,1.0650000000000546
3067,3503.32,1.9499999999995907
3068,3504.62,0.7799999999999727
3069,3505.14,2.3999999999998636
3070,3506.74,0.3900000000003274
3071,3507.0,2.339999999999918
3072,3508.56,0.7950000000003001
3073,3509.09,2.3999999999998636
3074,3510.69,0.7799999999999727
3075,3511.21,1.9500000000002728
3076,3512.51,0.7799999999999727
3077,3513.03,2.369999999999891
3078,3514.61,0.8549999999995634
3079,3515.18,2.0250000000005457
3080,3516.53,1.1549999999999727
3081,3517.3,1.9799999999995634
3082,3518.62,0.7799999999999727
3083,3519.14,2.714999999999918
3084,3520.95,0.375
3085,3521.2,1.9650000000006003
3086,3522.51,0.8249999999995907
3087,3523.06,2.4450000000001637
3088,3524.69,0.8099999999999454
3089,3525.23,2.3999999999998636
3090,3526.83,0.3900000000003274
3091,3527.09,2.339999999999918
3092,3528.65,0.75
3093,3529.15,2.384999999999536
3094,3530.74,0.75
3095,3531.24,1.9800000000002456
3096,3532.56,1.0199999999997544
3097,3533.24,2.160000000000082
3098,3534.68,0.705000000000382
3099,3535.15,1.6499999999998636
3100,3536.25,1.1700000000003001
3101,3537.03,2.6999999999995907
3102,3538.83,0.4049999999999727
3103,3539.1,2.3850000000002183
3104,3540.69,0.7649999999996453
3105,3541.2,2.0100000000002183
3106,3542.54,0.7799999999999727
3107,3543.06,2.505000000000109
3108,3544.73,0.7200000000000273
3109,3545.21,2.2349999999996726
3110,3546.7,0.5850000000004911
3111,3547.09,2.384999999999536
3112,3548.68,0.5100000000002183
3113,3549.02,2.2350000000003547
3114,3550.51,0.8399999999999181
3115,3551.07,2.174999999999727
3116,3552.52,0.7200000000000273
3117,3553.0,2.459999999999809
3118,3554.64,0.540000000000191
3119,3555.0,2.325000000000273
3120,3556.55,0.7049999999996999
3121,3557.02,2.325000000000273
3122,3558.57,0.7200000000000273
3123,3559.05,2.294999999999618
3124,3560.58,0.75
3125,3561.08,2.2799999999999727
3126,3562.6,0.7799999999999727
3127,3563.12,2.1450000000004366
3128,3564.55,0.794999999999618
3129,3565.08,2.1750000000004093
3130,3566.53,0.9149999999995089
3131,3567.14,2.1450000000004366
3132,3568.57,0.8699999999998909
3133,3569.15,2.2049999999997
3134,3570.62,0.75
3135,3571.12,2.1450000000004366
3136,3572.55,0.7200000000000273
3137,3573.03,2.2049999999997
3138,3574.5,1.0650000000000546
3139,3575.21,2.160000000000082
3140,3576.65,0.7649999999996453
3141,3577.16,2.1900000000000546
3142,3578.62,0.6900000000000546
3143,3579.08,2.459999999999809
3144,3580.72,0.7650000000003274
3145,3581.23,2.5799999999997
3146,3582.95,0.43499999999994543
3147,3583.24,2.25
3148,3584.74,0.7350000000003547
3149,3585.23,1.9500000000002728
3150,3586.53,0.7049999999996999
3151,3587.0,2.505000000000109
3152,3588.67,0.7349999999996726
3153,3589.16,2.2799999999999727
3154,3590.68,0.75
3155,3591.18,2.1900000000000546
3156,3592.64,0.705000000000382
3157,3593.11,2.2799999999999727
3158,3594.63,0.7649999999996453
3159,3595.14,2.6549999999999727
3160,3596.91,0.25500000000010914
3161,3597.08,2.3999999999998636
3162,3598.68,0.6750000000004093
3163,3599.13,2.2349999999996726
3164,3600.62,0.7799999999999727
3165,3601.14,2.2200000000000273
3166,3602.62,1.0950000000000273
3167,3603.35,1.8450000000000273
3168,3604.58,0.7200000000000273
3169,3605.06,2.1900000000000546
3170,3606.52,1.125
3171,3607.27,1.9200000000003001
3172,3608.55,0.794999999999618
3173,3609.08,2.2200000000000273
3174,3610.56,0.7650000000003274
3175,3611.07,2.3249999999995907
3176,3612.62,0.7650000000003274
3177,3613.13,2.2799999999999727
3178,3614.65,1.1999999999995907
3179,3615.45,1.9200000000003001
3180,3616.73,3.0450000000003
3181,3618.76,0.3899999999996453
3182,3619.02,2.2350000000003547
3183,3620.51,2.5799999999997
3184,3622.23,0.7799999999999727
3185,3622.75,2.6700000000003
3186,3624.53,2.9849999999996726
3187,3626.52,0.75
3188,3627.02,2.2950000000003
3189,3628.55,0.9149999999995089
3190,3629.16,2.3099999999999454
3191,3630.7,1.125
3192,3631.45,1.8150000000000546
3193,3632.66,1.125
3194,3633.41,1.8000000000004093
3195,3634.61,0.6900000000000546
3196,3635.07,2.2049999999997
3197,3636.54,0.7650000000003274
3198,3637.05,2.4749999999994543
3199,3638.7,0.6150000000004638
3200,3639.11,2.25
3201,3640.61,0.7649999999996453
3202,3641.12,2.3999999999998636
3203,3642.72,0.7799999999999727
3204,3643.24,1.9500000000002728
3205,3644.54,0.7950000000003001
3206,3645.07,2.7749999999998636
3207,3646.92,0.375
3208,3647.17,2.0249999999998636
3209,3648.52,0.7200000000000273
3210,3649.0,1.875
3211,3650.25,1.4249999999997272
3212,3651.2,2.205000000000382
3213,3652.67,0.7349999999996726
3214,3653.16,2.040000000000191
3215,3654.52,0.8850000000002183
3216,3655.11,2.174999999999727
3217,3656.56,0.7200000000000273
3218,3657.04,2.5650000000000546
3219,3658.75,0.5100000000002183
3220,3659.09,2.2349999999996726
3221,3660.58,0.7200000000000273
3222,3661.06,2.3550000000002456
3223,3662.63,0.6149999999997817
3224,3663.04,2.25
3225,3664.54,0.7650000000003274
3226,3665.05,2.25
3227,3666.55,0.8999999999998636
3228,3667.15,2.160000000000082
3229,3668.59,0.75
3230,3669.09,2.2349999999996726
3231,3670.58,0.75
3232,3671.08,2.6100000000003547
3233,3672.82,0.3450000000000273
3234,3673.05,2.414999999999509
3235,3674.66,0.7650000000003274
3236,3675.17,2.084999999999809
3237,3676.56,0.6600000000000819
3238,3677.0,2.535000000000082
3239,3678.69,1.0799999999996999
3240,3679.41,1.830000000000382
3241,3680.63,0.7049999999996999
3242,3681.1,2.1900000000000546
3243,3682.56,0.7200000000000273
3244,3683.04,2.205000000000382
3245,3684.51,1.0349999999993997
3246,3685.2,2.0100000000002183
3247,3686.54,0.7350000000003547
3248,3687.03,2.8649999999997817
3249,3688.94,0.31500000000005457
3250,3689.15,2.294999999999618
3251,3690.68,0.7200000000000273
3252,3691.16,2.1900000000000546
3253,3692.62,0.7200000000000273
3254,3693.1,2.325000000000273
3255,3694.65,0.8099999999999454
3256,3695.19,2.3249999999995907
3257,3696.74,0.6900000000000546
3258,3697.2,2.2200000000000273
3259,3698.68,0.75
3260,3699.18,2.5200000000004366
3261,3700.86,0.375
3262,3701.11,2.3099999999999454
3263,3702.65,0.7649999999996453
3264,3703.16,2.0100000000002183
3265,3704.5,3.0
3266,3706.5,1.125
3267,3707.25,2.160000000000082
3268,3708.69,0.6300000000001091
3269,3709.11,2.25
3270,3710.61,0.8099999999999454
3271,3711.15,2.160000000000082
3272,3712.59,0.6749999999997272
3273,3713.04,2.4450000000001637
3274,3714.67,0.6149999999997817
3275,3715.08,2.130000000000109
3276,3716.5,0.7799999999999727
3277,3717.02,2.339999999999918
3278,3718.58,0.75
3279,3719.08,2.1750000000004093
3280,3720.53,0.7200000000000273
3281,3721.01,2.369999999999891
3282,3722.59,0.6449999999997544
3283,3723.02,2.3099999999999454
3284,3724.56,0.705000000000382
3285,3725.03,2.3099999999999454
3286,3726.57,0.75
3287,3727.07,2.2049999999997
3288,3728.54,0.7200000000000273
3289,3729.02,2.339999999999918
3290,3730.58,0.7200000000000273
3291,3731.06,2.6400000000003274
3292,3732.82,0.26999999999975444
3293,3733.0,2.339999999999918
3294,3734.56,0.7350000000003547
3295,3735.05,2.2349999999996726
3296,3736.54,0.7350000000003547
3297,3737.03,2.5349999999993997
3298,3738.72,0.6600000000000819
3299,3739.16,2.040000000000191
3300,3740.52,0.915000000000191
3301,3741.13,2.2200000000000273
3302,3742.61,0.7200000000000273
3303,3743.09,2.4299999999998363
3304,3744.71,0.6000000000001364
3305,3745.11,2.160000000000082
3306,3746.55,0.6749999999997272
3307,3747.0,2.3850000000002183
3308,3748.59,1.0350000000000819
3309,3749.28,1.8299999999996999
3310,3750.5,1.0799999999996999
3311,3751.22,1.9049999999999727
3312,3752.49,1.0950000000000273
3313,3753.22,2.085000000000491
3314,3754.61,1.0650000000000546
3315,3755.32,2.0999999999994543
3316,3756.72,0.6150000000004638
3317,3757.13,2.3249999999995907
3318,3758.68,0.7650000000003274
3319,3759.19,2.25
3320,3760.69,0.7049999999996999
3321,3761.16,2.25
3322,3762.66,0.7200000000000273
3323,3763.14,2.3099999999999454
3324,3764.68,1.080000000000382
3325,3765.4,1.7550000000001091
3326,3766.57,0.7049999999996999
3327,3767.04,2.535000000000082
3328,3768.73,0.6900000000000546
3329,3769.19,1.3649999999997817
3330,3770.1,1.4400000000000546
3331,3771.06,2.160000000000082
3332,3772.5,1.0799999999996999
3333,3773.22,2.160000000000082
3334,3774.66,0.705000000000382
3335,3775.13,2.535000000000082
3336,3776.82,0.3599999999996726
3337,3777.06,2.459999999999809
3338,3778.7,0.6750000000004093
3339,3779.15,2.1000000000001364
3340,3780.55,0.7349999999996726
3341,3781.04,2.2350000000003547
3342,3782.53,0.7349999999996726
3343,3783.02,2.339999999999918
3344,3784.58,0.6750000000004093
3345,3785.03,2.25
3346,3786.53,0.794999999999618
3347,3787.06,2.3550000000002456
3348,3788.63,0.584999999999809
3349,3789.02,2.2200000000000273
3350,3790.5,0.8399999999999181
3351,3791.06,2.2650000000003274
3352,3792.57,0.6900000000000546
3353,3793.03,2.25
3354,3794.53,0.7349999999996726
3355,3795.02,2.2200000000000273
3356,3796.5,0.8550000000002456
3357,3797.07,2.3099999999999454
3358,3798.61,0.7049999999996999
3359,3799.08,2.1450000000004366
3360,3800.51,0.7349999999996726
3361,3801.0,2.369999999999891
3362,3802.58,0.7200000000000273
3363,3803.06,2.2200000000000273
3364,3804.54,0.7350000000003547
3365,3805.03,2.2049999999997
3366,3806.5,0.7650000000003274
3367,3807.01,2.3549999999995634
3368,3808.58,0.8850000000002183
3369,3809.17,2.1000000000001364
3370,3810.57,0.7200000000000273
3371,3811.05,2.2349999999996726
3372,3812.54,0.9299999999998363
3373,3813.16,2.0250000000005457
3374,3814.51,0.7349999999996726
3375,3815.0,2.2650000000003274
3376,3816.51,0.7349999999996726
3377,3817.0,2.3550000000002456
3378,3818.57,0.7349999999996726
3379,3819.06,2.339999999999918
3380,3820.62,0.6000000000001364
3381,3821.02,2.369999999999891
3382,3822.6,0.9450000000001637
3383,3823.23,2.0700000000001637
3384,3824.61,0.8249999999995907
3385,3825.16,2.1000000000001364
3386,3826.56,0.7799999999999727
3387,3827.08,2.369999999999891
3388,3828.66,0.5100000000002183
3389,3829.0,2.3099999999999454
3390,3830.54,0.7650000000003274
3391,3831.05,2.294999999999618
3392,3832.58,0.6750000000004093
3393,3833.03,2.4749999999994543
3394,3834.68,0.5250000000005457
3395,3835.03,2.25
3396,3836.53,0.9749999999994543
3397,3837.18,2.085000000000491
3398,3838.57,0.794999999999618
3399,3839.1,2.115000000000464
3400,3840.51,0.8399999999999181
3401,3841.07,2.25
3402,3842.57,0.7799999999999727
3403,3843.09,2.2200000000000273
3404,3844.57,0.7349999999996726
3405,3845.06,2.1900000000000546
3406,3846.52,0.75
3407,3847.02,2.3099999999999454
3408,3848.56,0.705000000000382
3409,3849.03,2.5349999999993997
3410,3850.72,0.48000000000024556
3411,3851.04,2.339999999999918
3412,3852.6,0.7650000000003274
3413,3853.11,2.160000000000082
3414,3854.55,0.7049999999996999
3415,3855.02,2.2950000000003
3416,3856.55,0.8999999999998636
3417,3857.15,2.130000000000109
3418,3858.57,0.7349999999996726
3419,3859.06,2.2799999999999727
3420,3860.58,0.6450000000004366
3421,3861.01,2.339999999999918
3422,3862.57,0.6749999999997272
3423,3863.02,2.3550000000002456
3424,3864.59,0.7200000000000273
3425,3865.07,2.1900000000000546
3426,3866.53,0.7049999999996999
3427,3867.0,2.415000000000191
3428,3868.61,0.6749999999997272
3429,3869.06,2.325000000000273
3430,3870.61,0.6749999999997272
3431,3871.06,2.459999999999809
3432,3872.7,0.540000000000191
3433,3873.06,2.459999999999809
3434,3874.7,0.5250000000005457
3435,3875.05,2.3249999999995907
3436,3876.6,0.6450000000004366
3437,3877.03,2.339999999999918
3438,3878.59,0.6300000000001091
3439,3879.01,2.3549999999995634
3440,3880.58,0.75
3441,3881.08,2.1450000000004366
3442,3882.51,0.7649999999996453
3443,3883.02,2.325000000000273
3444,3884.57,0.6600000000000819
3445,3885.01,2.384999999999536
3446,3886.6,0.6450000000004366
3447,3887.03,2.339999999999918
3448,3888.59,0.6900000000000546
3449,3889.05,2.2049999999997
3450,3890.52,0.7650000000003274
3451,3891.03,2.25
3452,3892.53,0.75
3453,3893.03,2.2200000000000273
3454,3894.51,0.75
3455,3895.01,2.2799999999999727
3456,3896.53,0.7649999999996453
3457,3897.04,2.3099999999999454
3458,3898.58,0.75
3459,3899.08,2.3550000000002456
3460,3900.65,0.6749999999997272
3461,3901.1,2.115000000000464
3462,3902.51,0.7649999999996453
3463,3903.02,2.4450000000001637
3464,3904.65,0.5249999999998636
3465,3905.0,2.2650000000003274
3466,3906.51,0.75
3467,3907.01,2.3999999999998636
3468,3908.61,0.6149999999997817
3469,3909.02,2.2350000000003547
3470,3910.51,0.7649999999996453
3471,3911.02,2.339999999999918
3472,3912.58,0.75
3473,3913.08,2.2799999999999727
3474,3914.6,0.7200000000000273
3475,3915.08,2.1900000000000546
3476,3916.54,0.7950000000003001
3477,3917.07,2.160000000000082
3478,3918.51,0.8099999999999454
3479,3919.05,2.294999999999618
3480,3920.58,0.6450000000004366
3481,3921.01,2.3549999999995634
3482,3922.58,0.6300000000001091
3483,3923.0,2.3999999999998636
3484,3924.6,0.7200000000000273
3485,3925.08,2.2350000000003547
3486,3926.57,0.6449999999997544
3487,3927.0,2.4899999999997817
3488,3928.66,0.6450000000004366
3489,3929.09,2.174999999999727
3490,3930.54,0.8099999999999454
3491,3931.08,2.2200000000000273
3492,3932.56,0.8850000000002183
3493,3933.15,2.084999999999809
3494,3934.54,1.3649999999997817
3495,3935.45,1.620000000000573
3496,3936.53,0.7649999999996453
3497,3937.04,2.4450000000001637
3498,3938.67,0.5549999999998363
3499,3939.04,2.1900000000000546
3500,3940.5,1.0199999999997544
3501,3941.18,1.9800000000002456
3502,3942.5,0.7650000000003274
3503,3943.01,2.2349999999996726
3504,3944.5,0.8250000000002728
3505,3945.05,2.2049999999997
3506,3946.52,0.7350000000003547
3507,3947.01,2.384999999999536
3508,3948.6,0.6750000000004093
3509,3949.05,2.2049999999997
3510,3950.52,0.8099999999999454
3511,3951.06,2.2950000000003
3512,3952.59,0.6749999999997272
3513,3953.04,2.1900000000000546
3514,3954.5,0.8250000000002728
3515,3955.05,2.25
3516,3956.55,0.6900000000000546
3517,3957.01,2.2649999999996453
3518,3958.52,0.7650000000003274
3519,3959.03,2.2799999999999727
3520,3960.55,0.8099999999999454
3521,3961.09,2.1449999999997544
3522,3962.52,0.7200000000000273
3523,3963.0,2.2650000000003274
3524,3964.51,0.75
3525,3965.01,2.369999999999891
3526,3966.59,0.7349999999996726
3527,3967.08,2.3550000000002456
3528,3968.65,0.6000000000001364
3529,3969.05,2.2649999999996453
3530,3970.56,0.705000000000382
3531,3971.03,2.2049999999997
3532,3972.5,0.8099999999999454
3533,3973.04,2.205000000000382
3534,3974.51,0.8399999999999181
3535,3975.07,2.25
3536,3976.57,0.7049999999996999
3537,3977.04,2.2799999999999727
3538,3978.56,0.8099999999999454
3539,3979.1,2.1000000000001364
3540,3980.5,0.8250000000002728
3541,3981.05,2.2049999999997
3542,3982.52,0.8250000000002728
3543,3983.07,2.2049999999997
3544,3984.54,0.7200000000000273
3545,3985.02,2.2799999999999727
3546,3986.54,0.705000000000382
3547,3987.01,2.504999999999427
3548,3988.68,0.5850000000004911
3549,3989.07,2.174999999999727
3550,3990.52,0.8250000000002728
3551,3991.07,2.174999999999727
3552,3992.52,0.7200000000000273
3553,3993.0,2.3099999999999454
3554,3994.54,0.7350000000003547
3555,3995.03,2.3249999999995907
3556,3996.58,0.7200000000000273
3557,3997.06,2.1900000000000546
3558,3998.52,0.7350000000003547
3559,3999.01,2.25
3560,4000.51,0.7799999999999727
3561,4001.03,2.3249999999995907
3562,4002.58,0.705000000000382
3563,4003.05,2.2049999999997
3564,4004.52,0.7350000000003547
3565,4005.01,2.294999999999618
3566,4006.54,0.75
3567,4007.04,2.4299999999998363
3568,4008.66,0.5250000000005457
3569,4009.01,2.3549999999995634
3570,4010.58,0.7650000000003274
3571,4011.09,2.1449999999997544
3572,4012.52,0.7350000000003547
3573,4013.01,2.3099999999999454
3574,4014.55,0.7049999999996999
3575,4015.02,2.2950000000003
3576,4016.55,0.75
3577,4017.05,2.2799999999999727
3578,4018.57,0.9299999999998363
3579,4019.19,2.040000000000191
3580,4020.55,0.7200000000000273
3581,4021.03,2.2200000000000273
3582,4022.51,0.8549999999995634
3583,4023.08,2.1750000000004093
3584,4024.53,0.75
3585,4025.03,2.2799999999999727
3586,4026.55,0.7200000000000273
3587,4027.03,2.294999999999618
3588,4028.56,0.705000000000382
3589,4029.03,2.9549999999997
3590,4031.0,2.369999999999891
3591,4032.58,0.7200000000000273
3592,4033.06,2.1900000000000546
3593,4034.52,0.8250000000002728
3594,4035.07,2.2349999999996726
3595,4036.56,0.705000000000382
3596,4037.03,2.3249999999995907
3597,4038.58,0.6750000000004093
3598,4039.03,2.294999999999618
3599,4040.56,0.6750000000004093
3600,4041.01,2.25
3601,4042.51,0.8099999999999454
3602,4043.05,2.2049999999997
3603,4044.52,0.7950000000003001
3604,4045.05,2.369999999999891
3605,4046.63,0.6900000000000546
3606,4047.09,2.174999999999727
3607,4048.54,0.8099999999999454
3608,4049.08,2.25
3609,4050.58,0.6900000000000546
3610,4051.04,2.3550000000002456
3611,4052.61,0.584999999999809
3612,4053.0,2.2650000000003274
3613,4054.51,0.8249999999995907
3614,4055.06,2.2650000000003274
3615,4056.57,0.7649999999996453
3616,4057.08,2.130000000000109
3617,4058.5,0.8850000000002183
3618,4059.09,2.160000000000082
3619,4060.53,0.7049999999996999
3620,4061.0,2.2950000000003
3621,4062.53,0.7200000000000273
3622,4063.01,2.3099999999999454
3623,4064.55,0.7349999999996726
3624,4065.04,2.205000000000382
3625,4066.51,0.8549999999995634
3626,4067.08,2.2350000000003547
3627,4068.57,0.7049999999996999
3628,4069.04,2.3099999999999454
3629,4070.58,0.7350000000003547
3630,4071.07,2.174999999999727
3631,4072.52,0.7350000000003547
3632,4073.01,2.25
3633,4074.51,0.8549999999995634
3634,4075.08,2.2200000000000273
3635,4076.56,0.705000000000382
3636,4077.03,2.2200000000000273
3637,4078.51,0.8399999999999181
3638,4079.07,2.2799999999999727
3639,4080.59,0.6900000000000546
3640,4081.05,2.3099999999999454
3641,4082.59,0.6149999999997817
3642,4083.0,2.3550000000002456
3643,4084.57,0.7349999999996726
3644,4085.06,2.25
3645,4086.56,0.7350000000003547
3646,4087.05,2.2200000000000273
3647,4088.53,0.75
3648,4089.03,2.2799999999999727
3649,4090.55,0.75
3650,4091.05,2.2349999999996726
3651,4092.54,0.7350000000003547
3652,4093.03,2.2649999999996453
3653,4094.54,0.7350000000003547
3654,4095.03,2.3099999999992633
3655,4096.57,0.6900000000000546
3656,4097.03,2.3099999999999454
3657,4098.57,0.6900000000000546
3658,4099.03,2.2650000000003274
3659,4100.54,0.6900000000000546
3660,4101.0,2.25
3661,4102.5,0.9450000000001637
3662,4103.13,2.0700000000001637
3663,4104.51,0.794999999999618
3664,4105.04,2.2200000000007094
3665,4106.52,0.7199999999993452
3666,4107.0,2.3850000000002183
3667,4108.59,0.6900000000000546
3668,4109.05,2.25
3669,4110.55,0.705000000000382
3670,4111.02,2.264999999998963
3671,4112.53,0.7200000000007094
3672,4113.01,2.2799999999992906
3673,4114.53,0.8400000000006003
3674,4115.09,2.1149999999997817
3675,4116.5,0.8699999999998909
3676,4117.08,2.130000000000109
3677,4118.5,0.7650000000003274
3678,4119.01,2.25
3679,4120.51,0.8549999999995634
3680,4121.08,2.205000000000382
3681,4122.55,0.705000000000382
3682,4123.02,2.414999999999509
3683,4124.63,0.5850000000004911
3684,4125.02,2.339999999999236
3685,4126.58,0.6450000000004366
3686,4127.01,2.294999999999618
3687,4128.54,0.7800000000006548
3688,4129.06,2.264999999998963
3689,4130.57,0.8099999999999454
3690,4131.11,2.085000000000491
3691,4132.5,0.75
3692,4133.0,2.280000000000655
3693,4134.52,0.9299999999998363
3694,4135.14,2.039999999999509
3695,4136.5,0.8549999999995634
3696,4137.07,2.235000000001037
3697,4138.56,0.7349999999996726
3698,4139.05,2.174999999999727
3699,4140.5,0.9149999999995089
3700,4141.11,2.085000000000491
3701,4142.5,0.8099999999999454
3702,4143.04,2.2349999999996726
3703,4144.53,0.7800000000006548
3704,4145.05,2.369999999999891
3705,4146.63,0.705000000000382
3706,4147.1,2.1149999999997817
3707,4148.51,0.9599999999991269
3708,4149.15,2.0250000000005457
3709,4150.5,0.8250000000002728
3710,4151.05,2.2799999999992906
3711,4152.57,0.6750000000010914
3712,4153.02,2.3099999999999454
3713,4154.56,0.7049999999990177
3714,4155.03,2.25
3715,4156.53,0.705000000000382
3716,4157.0,2.3099999999999454
3717,4158.54,0.7200000000007094
3718,4159.02,2.264999999998963
3719,4160.53,0.8250000000002728
3720,4161.08,2.3099999999999454
3721,4162.62,0.6749999999997272
3722,4163.07,2.3400000000006003
3723,4164.63,0.6749999999997272
3724,4165.08,2.205000000000382
3725,4166.55,0.794999999999618
3726,4167.08,2.205000000000382
3727,4168.55,0.75
3728,4169.05,2.25
3729,4170.55,0.75
3730,4171.05,2.3099999999999454
3731,4172.59,0.7349999999996726
3732,4173.08,2.2650000000003274
3733,4174.59,0.9149999999995089
3734,4175.2,2.160000000000764
3735,4176.64,0.5700000000001637
3736,4177.02,2.3249999999989086
3737,4178.57,0.705000000000382
3738,4179.04,2.205000000000382
3739,4180.51,0.8699999999998909
3740,4181.09,2.25
3741,4182.59,0.75
3742,4183.09,2.219999999999345
3743,4184.57,0.7350000000010368
3744,4185.06,2.3249999999989086
3745,4186.61,0.7200000000007094
3746,4187.09,2.219999999999345
3747,4188.57,0.75
3748,4189.07,2.369999999999891
3749,4190.65,0.6300000000001091
3750,4191.07,2.205000000000382
3751,4192.54,0.9000000000005457
3752,4193.14,2.039999999999509
3753,4194.5,0.8699999999998909
3754,4195.08,2.1450000000004366
3755,4196.51,0.7349999999996726
3756,4197.0,2.3549999999995634
3757,4198.57,0.6900000000000546
3758,4199.03,2.4000000000005457
3759,4200.63,0.6900000000000546
3760,4201.09,2.325000000000273
3761,4202.64,0.5999999999994543
3762,4203.04,2.325000000000273
3763,4204.59,0.75
3764,4205.09,2.369999999999891
3765,4206.67,0.5850000000004911
3766,4207.06,2.414999999999509
3767,4208.67,0.5850000000004911
3768,4209.06,2.25
3769,4210.56,0.7349999999996726
3770,4211.05,2.174999999999727
3771,4212.5,0.7800000000006548
3772,4213.02,2.3099999999999454
3773,4214.56,0.6599999999993997
3774,4215.0,2.3850000000002183
3775,4216.59,0.6300000000001091
3776,4217.01,2.3549999999995634
3777,4218.58,0.660000000000764
3778,4219.02,2.2799999999992906
3779,4220.54,0.794999999999618
3780,4221.07,2.1750000000010914
3781,4222.52,0.884999999998854
3782,4223.11,2.280000000000655
3783,4224.63,0.6149999999997817
3784,4225.04,2.280000000000655
3785,4226.56,0.7199999999993452
3786,4227.04,2.2200000000007094
3787,4228.52,0.7799999999992906
3788,4229.04,2.369999999999891
3789,4230.62,0.660000000000764
3790,4231.06,2.2049999999990177
3791,4232.53,0.8400000000006003
3792,4233.09,2.174999999999727
3793,4234.54,0.8400000000006003
3794,4235.1,2.0999999999994543
3795,4236.5,0.8250000000002728
3796,4237.05,2.219999999999345
3797,4238.53,0.7350000000010368
3798,4239.02,2.219999999999345
3799,4240.5,0.794999999999618
3800,4241.03,2.25
3801,4242.53,0.705000000000382
3802,4243.0,2.2650000000003274
3803,4244.51,0.7650000000003274
3804,4245.02,2.219999999999345
3805,4246.5,0.794999999999618
3806,4247.03,2.205000000000382
3807,4248.5,0.7800000000006548
3808,4249.02,2.2799999999992906
3809,4250.54,0.7200000000007094
3810,4251.02,2.25
3811,4252.52,0.9749999999994543
3812,4253.17,2.085000000000491
3813,4254.56,0.9749999999994543
3814,4255.21,1.9349999999999454
3815,4256.5,0.7650000000003274
3816,4257.01,2.25
3817,4258.51,0.8850000000002183
3818,4259.1,2.294999999999618
3819,4260.63,0.6300000000001091
3820,4261.05,2.2650000000003274
3821,4262.56,0.7049999999990177
3822,4263.03,2.205000000000382
3823,4264.5,0.7800000000006548
3824,4265.02,2.2799999999992906
3825,4266.54,0.75
3826,4267.04,2.3099999999999454
3827,4268.58,0.7200000000007094
3828,4269.06,2.2049999999990177
3829,4270.53,0.7800000000006548
3830,4271.05,2.2799999999992906
3831,4272.57,0.6900000000000546
3832,4273.03,2.3099999999999454
3833,4274.57,0.8250000000002728
3834,4275.12,2.174999999999727
3835,4276.57,0.7350000000010368
3836,4277.06,2.2049999999990177
3837,4278.53,0.75
3838,4279.03,2.325000000000273
3839,4280.58,0.7800000000006548
3840,4281.1,2.2349999999996726
3841,4282.59,0.75
3842,4283.09,2.1149999999997817
3843,4284.5,0.7800000000006548
3844,4285.02,2.3099999999999454
3845,4286.56,0.7649999999989632
3846,4287.07,2.2650000000003274
3847,4288.58,0.6300000000001091
3848,4289.0,2.3099999999999454
3849,4290.54,0.75
3850,4291.04,2.3099999999999454
3851,4292.58,0.7650000000003274
3852,4293.09,2.205000000000382
3853,4294.56,0.6749999999997272
3854,4295.01,2.339999999999236
3855,4296.57,0.7650000000003274
3856,4297.08,2.130000000000109
3857,4298.5,0.7800000000006548
3858,4299.02,2.264999999998963
3859,4300.53,0.7950000000009823
3860,4301.06,2.2799999999992906
3861,4302.58,0.7650000000003274
3862,4303.09,2.219999999999345
3863,4304.57,0.7800000000006548
3864,4305.09,2.1149999999997817
3865,4306.5,0.8549999999995634
3866,4307.07,2.4450000000001637
3867,4308.7,0.4800000000009277
3868,4309.02,2.5199999999990723
3869,4310.7,0.49499999999989086
3870,4311.03,2.3400000000006003
3871,4312.59,0.75
3872,4313.09,2.174999999999727
3873,4314.54,0.9450000000001637
3874,4315.17,2.1450000000004366
3875,4316.6,0.6599999999993997
3876,4317.04,2.205000000000382
3877,4318.51,1.0199999999990723
3878,4319.19,2.0250000000005457
3879,4320.54,0.7200000000007094
3880,4321.02,2.219999999999345
3881,4322.5,0.8699999999998909
3882,4323.08,2.2650000000003274
3883,4324.59,0.7349999999996726
3884,4325.08,2.2349999999996726
3885,4326.57,0.7350000000010368
3886,4327.06,2.2349999999996726
3887,4328.55,0.6749999999997272
3888,4329.0,2.3099999999999454
3889,4330.54,0.8400000000006003
3890,4331.1,2.1599999999993997
3891,4332.54,0.7200000000007094
3892,4333.02,2.3099999999999454
3893,4334.56,0.7199999999993452
3894,4335.04,2.3549999999995634
3895,4336.61,0.5850000000004911
3896,4337.0,2.414999999999509
3897,4338.61,0.5850000000004911
3898,4339.0,2.3400000000006003
3899,4340.56,0.7649999999989632
3900,4341.07,2.205000000000382
3901,4342.54,0.7349999999996726
3902,4343.03,2.205000000000382
3903,4344.5,0.8850000000002183
3904,4345.09,2.2349999999996726
3905,4346.58,0.7650000000003274
3906,4347.09,2.1450000000004366
3907,4348.52,0.7799999999992906
3908,4349.04,2.2349999999996726
3909,4350.53,0.7350000000010368
3910,4351.02,2.25
3911,4352.52,0.7349999999996726
3912,4353.01,2.2349999999996726
3913,4354.5,0.75
3914,4355.0,2.294999999999618
3915,4356.53,0.8400000000006003
3916,4357.09,2.1599999999993997
3917,4358.53,0.8250000000002728
3918,4359.08,2.2650000000003274
3919,4360.59,0.75
3920,4361.09,2.1149999999997817
3921,4362.5,0.75
3922,4363.0,2.294999999999618
3923,4364.53,0.9000000000005457
3924,4365.13,2.339999999999236
3925,4366.69,0.46500000000060027
3926,4367.0,2.325000000000273
