,BIT_DEPTH,cost
0,117.3,1061.4346740295946
1,119.18,194.8126548207338
2,148.57,13.794126598672618
3,150.86,1.626735496558433
4,151.09,39.119285387081916
5,156.79,218.5534032034804
6,190.56,136.8838493723847
7,195.1,15.01511953478349
8,196.7,42.21691169215595
9,202.66,88.48064533476749
10,214.68,65.96195676905572
11,225.34,269.3982070990585
12,269.08,39.57791411042961
13,274.68,43.457777777777956
14,278.6,72.86801587301508
15,281.13,290.34688524590155
16,321.02,60.75896511993301
17,330.2,6.729197820777772
18,331.26,77.9201037826027
19,341.77,13.773336303887913
20,343.8,14.899919678714628
21,346.28,16.75118236472958
22,349.07,9.271190618847843
23,350.58,29.154558670820457
24,355.0,58.73411587010453
25,363.77,144.66309613537285
26,388.51,202.498989990901
27,418.1,23.722452457020864
28,421.14,9.965684133022634
29,422.55,5.551216485707909
30,423.37,77.98268378593326
31,434.77,75.37729968686706
32,446.73,6.9975319079747695
33,447.89,25.143634552004293
34,452.14,6.938945323341868
35,453.35,18.438567803777776
36,456.55,101.15020793468545
37,474.63,116.2862457337882
38,487.09,66.33518679409246
39,495.04,27.83990552111016
40,498.66,12.309216182048054
41,500.72,33.00060974670871
42,506.29,471.75734720416165
43,545.19,21.850907313894112
44,548.81,2.9826808364759447
45,549.17,125.74952548330418
46,564.9,116.45843379701182
47,581.03,18.06819897084101
48,583.21,77.49928150765544
49,593.3,72.5130896190037
50,602.53,5.849111077343869
51,603.28,27.209587659448026
52,606.81,17.200141259564518
53,609.05,14.881241557695347
54,611.01,17.337613820406386
55,613.05,38.122475570032925
56,618.0,13.6493139140787
57,620.17,6.62611547659745
58,621.25,7.9521381996779335
59,622.55,10.83768686345584
60,624.31,12.11773886623548
61,626.33,5.134127631793151
62,627.18,9.5632112539414
63,628.54,4.872348833248431
64,629.13,11.428488708743487
65,630.63,4.513096281864415
66,631.19,11.898670160497172
67,632.66,6.352541966427246
68,633.48,8.513419763756877
69,634.6,4.379771718452396
70,635.15,12.333091794794047
71,636.73,3.6919823788545596
72,637.24,10.916946107784185
73,638.65,2.9690519877676964
74,639.01,12.621934216986242
75,640.57,5.040349141693094
76,641.23,10.654553946754033
77,642.58,17.220107137686334
78,644.84,12.788813332056318
79,646.84,1.757745221982332
80,647.14,6.975197740112749
81,648.31,4.777674745346214
82,649.14,11.502665935271787
83,650.97,11.142379638693374
84,652.76,3.1190313812704633
85,653.2,10.735159059474036
86,654.76,5.234689948511182
87,655.53,12.576478796467924
88,657.4,3.827483821850164
89,658.0,5.096284584980059
90,658.78,13.29682602782712
91,660.79,5.149505703422692
92,661.45,14.439849465602112
93,663.31,12.158388497828753
94,664.88,1.6847293523076208
95,665.11,10.555361460646498
96,666.6,4.790117279124085
97,667.26,9.204435682601945
98,668.56,3.6646357051559724
99,669.11,13.337167985927472
100,671.18,13.687336480108602
101,673.19,7.37105615900118
102,674.26,5.223677021147128
103,675.06,11.760194568302026
104,676.86,1.6234232640425206
105,677.1,11.108447246931622
106,678.73,13.39573002754774
107,680.68,3.5202926383177013
108,681.24,10.78502596883719
109,682.9,1.5701901759382269
110,683.14,9.410745360511461
111,684.58,16.552917461182155
112,687.22,9.85412288017758
113,688.78,1.7853291536048954
114,689.05,10.741239579558417
115,690.58,15.727435925640252
116,692.91,1.3657050661509555
117,693.08,15.481137272323343
118,695.09,32.896606648198876
119,699.04,23.568128669900247
120,701.31,14.76278627251168
121,703.1,7.954260752688396
122,704.07,7.954512551079699
123,705.11,10.8928088443244
124,706.62,12.429796453219128
125,708.63,53.1719261213714
126,709.39,30.34014388489199
127,710.77,3.891373528362777
128,711.23,11.015357406042508
129,712.51,6.527303861610815
130,713.29,14.914216084484343
131,715.14,9.489600717810564
132,716.66,3.1673431679338764
133,717.07,11.115042735042081
134,718.54,4.601681205392513
135,719.17,12.26267192784664
136,720.8,1.8691419830343485
137,721.05,12.404622578490713
138,722.74,2.9360053440212095
139,723.14,10.598782102197845
140,724.59,6.249378095761637
141,725.43,9.390470201515004
142,726.67,3.0655910987488735
143,727.08,10.696958733747572
144,728.5,6.181777719596971
145,729.35,10.622332155476792
146,730.76,3.193410087719771
147,731.19,11.033557046979865
148,732.69,3.026821810309601
149,733.1,12.163023689113421
150,734.76,3.149711397792726
151,735.19,10.40104638488488
152,736.67,3.3592515592518986
153,737.12,6.669294274300698
154,738.03,7.05956167814659
155,739.02,11.117581587083507
156,740.64,3.4977685348859593
157,741.17,7.171711026616242
158,742.25,17.089307399403257
159,744.85,1.8282869574014207
160,745.13,12.265945945946221
161,746.96,1.7293626047300275
162,747.22,10.220810452178881
163,748.78,1.8363872702822608
164,749.05,11.025849379058997
165,750.66,3.6502689589710253
166,751.21,5.514332425067692
167,752.03,4.705187588724575
168,752.75,12.412953356340031
169,754.58,3.66995937566786
170,755.13,10.663028882020829
171,756.73,4.992073813708322
172,757.47,7.37361591695517
173,758.57,3.517679324894334
174,759.1,10.645286343611962
175,760.66,12.403706233988135
176,762.52,3.413470099497265
177,763.04,10.609518922386357
178,764.63,5.500296761616278
179,765.45,8.35683689586179
180,766.71,12.546737967914408
181,768.59,15.694973455325568
182,770.89,10.167716556648223
183,772.27,6.5581631605949475
184,773.18,13.227893462470114
185,775.24,2.0855116937284457
186,775.51,27.12226476139168
187,779.19,11.832944470368643
188,780.69,14.88170599943068
189,782.66,20.123268998793975
190,785.25,12.90830402202154
191,786.9,1.8985391625940427
192,787.16,30.47872711635378
193,791.47,7.864371803424289
194,792.63,13.556581809490044
195,794.57,17.956361690743318
196,797.26,7.007546296295985
197,798.18,5.921880877743238
198,799.01,12.0091821247896
199,800.82,2.045356176735488
200,801.12,12.228877445932119
201,802.98,1.624875024995001
202,803.23,27.72565221570654
203,807.56,6.817218841559613
204,808.56,10.49165302782339
205,810.16,17.116725610967524
206,812.8,1.8270202203655979
207,813.06,10.162084073416477
208,814.52,3.6779071134624797
209,815.05,10.613668274083613
210,816.61,13.247666892961806
211,818.55,3.3155102040815736
212,819.06,10.25175945554015
213,820.57,5.235885416666484
214,821.35,7.73597523219793
215,822.51,4.2842375136051265
216,823.12,11.353129459735259
217,824.7,4.049938215334781
218,825.32,10.662346102250673
219,826.7,3.339270557028918
220,827.11,11.937490494296366
221,828.64,4.920784313725551
222,829.38,9.063188405797192
223,830.74,1.7068718580075322
224,831.0,11.195945386843494
225,832.7,2.6346623392835173
226,833.07,10.766729156388623
227,834.59,4.245271114032175
228,835.22,10.50130216343704
229,836.82,1.1899738903390948
230,837.0,12.623368632259595
231,838.86,1.878150113722334
232,839.14,10.653991661180877
233,840.72,12.414389627512907
234,842.56,14.476886070413908
235,844.71,4.412387543252368
236,845.24,65.11781650220476
237,855.07,22.34904584882202
238,856.63,20.097711530030733
239,858.75,3.6912177121772616
240,859.23,25.798176291793474
241,862.83,41.27668005354767
242,866.69,55.251428571423176
243,867.11,199.30181818181464
244,868.64,19.050478967097554
245,871.19,13.236635514018149
246,872.63,6.918717067583098
247,873.25,3.780321570264898
248,873.66,10.5218181818185
249,874.87,35.73850091407643
250,879.04,15.577058595265733
251,880.8,15.85703549060568
252,882.52,5.461928494041556
253,883.1,12.957377049180511
254,884.7,2.6677484787011325
255,885.05,11.882354340071942
256,886.59,4.040941619585615
257,887.1,14.240582261340705
258,888.83,1.6598452278584193
259,889.03,12.387293404094258
260,890.62,3.9754824254304073
261,891.15,10.789495861549932
262,892.54,5.183380882111711
263,893.18,14.395680473372817
264,895.05,13.111019021739393
265,896.64,3.126516709511459
266,897.03,12.772324568479043
267,898.62,3.2948754448397426
268,899.01,16.328469468675294
269,901.06,15.996348055372668
270,903.03,11.64832522366997
271,904.5,4.305646293442753
272,905.02,12.556485413429925
273,906.53,6.347981220657947
274,907.09,27.142469635627457
275,908.72,3.9793245068900784
276,909.09,15.791584158415377
277,910.64,4.0575086772081885
278,911.1,14.603425119914881
279,912.83,1.905924641336979
280,913.07,11.239408284023074
281,914.53,4.8224512619011985
282,915.15,45.27890878090382
283,920.63,61.12762285257697
284,925.0,24.644432383537072
285,926.61,10.558726307809781
286,927.07,33.745198776756624
287,928.53,14.563943661973369
288,929.09,33.39027863776973
289,930.52,12.143011093502162
290,931.03,83.93890577507547
291,934.68,5.544773175543666
292,935.08,16.68250223413689
293,937.05,14.646306913997007
294,938.63,4.012599701428409
295,939.06,14.084732551203473
296,940.63,8.079148936170853
297,941.32,13.015502800745944
298,942.54,4.230621188163573
299,943.16,9.703749043611488
300,944.51,5.234182444062376
301,945.2,3.691594202897872
302,945.67,9.822704661505814
303,946.88,18.69958662157064
304,949.03,14.165218451534777
305,950.59,3.7567145790555116
306,951.08,11.445036855036248
307,952.54,3.940692439062257
308,953.04,16.097145578663138
309,955.06,13.2012968251303
310,956.67,16.007340600269163
311,958.74,2.682128768142438
312,959.05,13.07429412847496
313,960.57,3.972236467235737
314,961.04,14.26295415959268
315,962.77,3.650592389171941
316,963.18,13.005629385060509
317,964.6,5.610524308865466
318,965.24,10.377847488736712
319,966.51,17.850656063618374
320,968.5,5.439138276552827
321,969.03,15.771405253761607
322,970.55,19.500184453228012
323,972.79,2.192748091603053
324,973.04,12.899269746646876
325,974.53,19.180668151447897
326,976.75,5.033426966292326
327,977.35,23.92952785492504
328,980.31,18.66613545816783
329,982.86,45.95592652620219
330,989.09,19.38627468994037
331,991.08,64.92723081988805
332,999.08,19.256075456223215
333,1001.19,13.87195473250953
334,1002.52,6.4221805183206255
335,1003.19,11.686723323889748
336,1004.53,4.6719870235202
337,1005.11,12.791818472355567
338,1006.71,5.471046494889224
339,1007.43,9.074894613583547
340,1008.74,4.805291777188588
341,1009.33,12.656605154796436
342,1010.95,1.3011634025135714
343,1011.12,13.11640319071812
344,1012.84,1.769679715301796
345,1013.06,11.95438075438128
346,1014.61,4.218554437328169
347,1015.15,12.050361658336168
348,1016.72,2.712921368439367
349,1017.04,12.481617250673704
350,1018.56,3.8628484037473725
351,1019.0,14.334926299456983
352,1020.62,3.4388042819631988
353,1021.0,37.15355643317364
354,1025.04,20.086938265434014
355,1027.0,13.161911606179995
356,1028.55,4.452020373514131
357,1029.09,27.502409715564518
358,1032.53,23.198777703155884
359,1035.36,48.64140375260727
360,1041.19,11.654539912363623
361,1042.52,4.257777004696393
362,1043.03,29.53380276875695
363,1046.6,102.90148760330663
364,1061.22,37.682424242423124
365,1064.58,86.55263803680944
366,1073.12,19.969211356467632
367,1074.8,14.156845001528158
368,1076.61,135.13622884529013
369,1094.06,41.37723196881079
370,1097.07,29.824081632652604
371,1098.85,1.321703155670202
372,1099.02,18.661591448931677
373,1101.44,11.914766938137607
374,1102.87,1.6844243552248075
375,1103.1,14.640539300057855
376,1105.03,30.30717557251901
377,1108.79,2.503814033576719
378,1109.12,15.326965110722263
379,1111.04,13.192157877710283
380,1112.68,4.3708980213085535
381,1113.24,14.8310115565704
382,1115.2,125.88870757398324
383,1130.59,22.52330702118862
384,1133.04,9.734614065179763
385,1134.08,6.0494163728952
386,1134.76,16.989255637598184
387,1136.65,15.967384309170777
388,1138.61,15.356315368623644
389,1140.53,6.0525138974674295
390,1141.3,9.534889855479026
391,1142.57,3.6668918918927256
392,1143.17,11.161274869615665
393,1144.91,34.34710874101532
394,1150.7,5.53238282788402
395,1151.32,33.63284891284235
396,1155.21,37.28675105485213
397,1158.73,21.753708218639886
398,1161.17,15.946882591093036
399,1162.93,1.4164408248124354
400,1163.1,32.184788549121734
401,1167.09,18.080470406787796
402,1169.14,71.88885245901531
403,1177.02,17.486808090774822
404,1178.74,6.427308003233959
405,1179.45,14.106714645554721
406,1181.11,15.724592570842681
407,1183.16,13.970290364341576
408,1184.78,16.24348352896741
409,1186.64,35.026900878292594
410,1190.77,2.4407617032533007
411,1191.0,14.28022064617728
412,1192.6,4.180242024202939
413,1193.04,15.497155715572783
414,1194.65,4.1901601721237265
415,1195.07,21.682393917096917
416,1197.21,9.687370085380234
417,1198.67,19.915785123966312
418,1201.26,13.958408924115174
419,1203.08,13.536978567695709
420,1204.7,2.9360106382970566
421,1205.06,12.494999999999777
422,1206.59,3.80686126598907
423,1207.06,16.90399717763266
424,1209.07,17.542049306625657
425,1211.06,13.646038839006223
426,1212.54,5.4510732023314254
427,1213.12,13.673562447611232
428,1214.6,4.890227890447173
429,1215.13,13.605916078103602
430,1216.61,5.380684005735507
431,1217.2,12.776292013010481
432,1218.7,23.84450704225405
433,1221.14,15.546503351050736
434,1222.73,4.651084187635266
435,1223.32,10.213762193515032
436,1224.72,5.510544977019556
437,1225.4,25.439208884831814
438,1228.66,38.38111640312337
439,1233.04,15.130600706713512
440,1234.57,16.81107958050665
441,1236.71,19.799078341013434
442,1239.01,16.07119868637102
443,1240.77,2.4513937423809806
444,1241.04,15.089401111340614
445,1242.69,5.294596995979946
446,1243.26,12.707507507507064
447,1244.56,43.095934468636855
448,1249.15,38.71536939591513
449,1253.33,159.68857754665078
450,1267.04,38.12164187983309
451,1269.06,374.46730422730303
452,1286.62,5.543241106720425
453,1287.24,13.418950740889148
454,1288.73,4.666584180291735
455,1289.22,13.860810081008626
456,1290.66,4.204400277326803
457,1291.09,14.582514970060243
458,1292.55,7.434107346782788
459,1293.1,20.342930800544103
460,1294.73,4.790126763932255
461,1295.21,13.605139059807193
462,1296.55,5.569622494141864
463,1297.08,15.223033419023517
464,1298.54,4.895260361318135
465,1299.0,16.351351883771454
466,1300.61,6.872668463612934
467,1301.25,13.897469520454768
468,1302.54,4.612558139535151
469,1303.01,15.078342410608391
470,1304.53,5.030169119261766
471,1305.06,14.620416489589283
472,1306.63,5.34310880829006
473,1307.14,13.086577374818201
474,1308.57,4.997923060752239
475,1309.11,14.116883116883118
476,1310.61,4.939656841181046
477,1311.13,16.90740452778201
478,1312.87,2.953085764811549
479,1313.18,13.084967845659573
480,1314.63,3.344817518247134
481,1315.01,14.0332106339465
482,1316.55,4.946348122866986
483,1317.04,15.183977000478976
484,1318.56,4.1045985800110785
485,1319.04,13.119644312708253
486,1320.56,5.442309782609371
487,1321.22,11.44478104069969
488,1322.6,4.772734662281541
489,1323.14,12.473820598006423
490,1324.67,3.6341741253038866
491,1325.07,13.373607364590619
492,1326.5,5.235871496923776
493,1327.04,16.601479214487515
494,1328.64,7.875016900048433
495,1329.13,21.32340080971647
496,1330.64,4.851855010660811
497,1331.16,12.271304347826314
498,1332.63,4.389141856391932
499,1333.18,11.663798123584966
500,1334.63,3.938842530280921
501,1335.11,14.093138785205593
502,1336.82,3.6796992481206727
503,1337.27,11.142841360261706
504,1338.61,5.302193958665466
505,1339.24,11.012152162584147
506,1340.56,4.332389380530751
507,1341.09,13.351517183571723
508,1342.72,16.66957238536829
509,1344.73,4.051157391601304
510,1345.22,11.122767842218803
511,1346.58,5.489740932643167
512,1347.24,10.609454061251293
513,1348.54,5.946613226453643
514,1349.2,13.220892857141724
515,1350.58,22.076927741284507
516,1352.72,5.217430503380126
517,1353.32,10.392336236274614
518,1354.51,5.538406552495282
519,1355.15,13.250582241629887
520,1356.7,2.5594344752579046
521,1357.0,12.860088105726643
522,1358.53,6.828489208634519
523,1359.14,16.530668332290706
524,1360.54,7.135123859191927
525,1361.02,24.98526315789513
526,1362.74,2.466250211041328
527,1363.04,13.890964868877088
528,1364.75,2.8018999151816835
529,1365.09,13.501772486773152
530,1366.75,3.8433851578780107
531,1367.23,12.259389083625438
532,1368.73,16.47436123348048
533,1370.69,2.829571230981338
534,1371.03,12.336600202771207
535,1372.53,5.221755593804434
536,1373.19,10.881765404854338
537,1374.51,4.084375521093881
538,1375.01,16.41220926357873
539,1377.02,12.61075173935155
540,1378.55,4.122241086587437
541,1379.05,13.250385473081252
542,1380.71,2.931795126801771
543,1381.07,13.183078450845052
544,1382.69,2.6442375601920336
545,1383.02,13.82299340436379
546,1384.7,4.169009196598994
547,1385.2,10.998781349940415
548,1386.54,4.133596059113227
549,1387.05,12.172474983322289
550,1388.54,3.8458545979779983
551,1389.02,13.413676907830272
552,1390.67,3.318658008656925
553,1391.06,13.787624828666132
554,1392.61,4.698465387823102
555,1393.12,15.663673469388899
556,1394.74,5.220344225492548
557,1395.25,11.784628745115068
558,1396.5,4.5456158307741035
559,1397.05,14.47763969602137
560,1398.56,6.237234636871625
561,1399.05,20.530621301774545
562,1400.6,6.8249722001589825
563,1401.09,19.695789473684577
564,1402.56,6.224285714286486
565,1403.0,22.43906976744133
566,1404.54,7.627204206835973
567,1405.05,21.974617368873737
568,1406.54,7.59697140555728
569,1407.08,21.38406766008835
570,1408.6,7.877916137232774
571,1409.14,19.988566538295494
572,1410.5,7.722536997885437
573,1411.03,22.57824933687003
574,1412.53,8.083096309630546
575,1413.06,23.420616740087286
576,1414.62,3.691391894370618
577,1415.05,12.052992089343665
578,1416.58,4.875316285330589
579,1417.21,10.715947136564282
580,1418.65,3.097004048581856
581,1419.07,10.625522367887957
582,1420.51,4.694813587407607
583,1421.14,10.89441018960651
584,1422.57,5.981302287804173
585,1423.38,10.824833153927482
586,1424.85,1.2541691434752733
587,1425.02,11.265278450362995
588,1426.55,4.6276344857275475
589,1427.16,11.651847507331238
590,1428.68,4.474089150063877
591,1429.27,10.1348484848478
592,1430.62,3.7385257301808066
593,1431.12,10.9159492303539
594,1432.6,5.873151059467149
595,1433.31,10.67638389465694
596,1434.8,2.7129844413022326
597,1435.16,10.869713984447147
598,1436.65,4.606297480495311
599,1437.29,10.668897576231629
600,1438.76,2.6073961639292245
601,1439.11,10.087754840364806
602,1440.51,3.8100202722270486
603,1441.01,11.442485707182982
604,1442.62,4.22263744915478
605,1443.2,10.798167018389123
606,1444.59,5.682865151043504
607,1445.31,10.190714285715549
608,1446.63,3.484383889802454
609,1447.08,14.005849282297987
610,1448.89,1.886795205836307
611,1449.15,11.646589716683494
612,1450.75,3.023082396471443
613,1451.15,13.284974245769089
614,1452.88,1.3319446116784994
615,1453.07,11.477246342049153
616,1454.71,2.5716892373479197
617,1455.05,12.077779056387756
618,1456.64,3.1427718856722713
619,1457.01,13.912410501192966
620,1458.81,1.7804567209080395
621,1459.05,11.102395907347088
622,1460.52,4.7586863311550145
623,1461.13,10.920756473667648
624,1462.56,5.101220005782572
625,1463.23,2.43913352932032
626,1463.54,12.852222222222426
627,1465.26,10.411487059510858
628,1466.62,4.424792293800188
629,1467.19,11.406789877736639
630,1468.7,2.427382550335035
631,1469.03,13.123415154749697
632,1470.71,2.5795419847322556
633,1471.04,11.612092187967674
634,1472.54,5.133793751467991
635,1473.06,17.584342507645154
636,1474.57,7.066294289287334
637,1475.06,18.98509803921502
638,1476.62,5.640495988330521
639,1477.05,19.837638376383765
640,1478.55,6.648568240981778
641,1479.05,43.65730437780121
642,1482.51,14.639029322548028
643,1483.01,40.500289855071976
644,1484.53,11.222053445850523
645,1485.05,31.22482758620748
646,1486.52,12.284081632652631
647,1487.04,37.74327645051218
648,1488.53,10.841672025722742
649,1489.07,30.737680763984397
650,1490.53,8.639031281533502
651,1491.05,24.522312719960077
652,1492.53,7.799395465995415
653,1493.0,25.168804780876044
654,1494.53,7.793978844588452
655,1495.08,28.07270192701966
656,1497.05,22.1903464755098
657,1498.64,6.668713889985222
658,1499.12,21.066291683406988
659,1500.62,6.315761589405067
660,1501.04,22.501780466724018
661,1502.56,6.869819639278685
662,1503.05,20.458309745249323
663,1504.5,7.7735711390346225
664,1505.05,28.298926441351508
665,1507.08,20.00029043969445
666,1508.5,28.25100804905996
667,1510.58,4.040149431142884
668,1511.07,12.529290515310848
669,1512.69,4.065043216835322
670,1513.26,11.092267842380888
671,1514.75,12.968321207221706
672,1516.51,5.514925100950826
673,1517.27,11.023367452900654
674,1518.7,3.094328816160008
675,1519.13,10.154737538013086
676,1520.52,1.9928358208962749
677,1520.785,13.589243959469993
678,1522.66,4.675172413792226
679,1523.29,7.1141957855430125
680,1524.26,5.993135593220197
681,1525.03,14.328633927278826
682,1526.91,0.8617144609714598
683,1527.02,14.182519431000916
684,1528.87,2.3595547309847333
685,1529.17,12.588064622485618
686,1530.72,3.644264264264476
687,1531.19,9.848622448978809
688,1532.56,3.4158139534881418
689,1533.1,8.023239479261397
690,1534.33,5.273002788216754
691,1535.08,10.81852320675178
692,1536.71,4.806650613462072
693,1537.41,8.059370613537483
694,1538.59,5.252441033743246
695,1539.36,10.33566075414079
696,1540.85,1.3495494600971978
697,1541.04,11.43194512747456
698,1542.62,4.974134955439858
699,1543.28,9.64435947457354
700,1544.61,5.728066346573549
701,1545.36,9.670140234207173
702,1546.63,3.4912206855067067
703,1547.08,13.812971211299216
704,1548.7,2.735299987206518
705,1549.08,10.878158058494687
706,1550.73,4.2447915385555
707,1551.33,9.515811934004258
708,1552.67,3.885304818775034
709,1553.19,9.998251776376796
710,1554.55,4.827895109851924
711,1555.19,10.608967895993965
712,1556.64,3.8301187403198855
713,1557.17,26.044425162688626
714,1560.59,9.787041707082592
715,1561.4,9.6895703826492
716,1562.7,2.858744969443187
717,1563.07,11.717145824061571
718,1564.59,4.1520318725114285
719,1565.13,12.056128154752555
720,1566.68,2.873662011968328
721,1567.06,12.43864734299623
722,1568.66,4.434251160173762
723,1569.25,11.73974102255974
724,1570.85,2.277431403535356
725,1571.15,11.483340319199073
726,1572.58,4.516432748539126
727,1573.17,13.988124180148109
728,1575.0,37.69397670549039
729,1576.52,58.263336703741416
730,1578.51,41.832871553463164
731,1580.52,9.871536523929471
732,1581.02,26.46943231441048
733,1582.52,8.284565108094519
734,1583.02,25.0193866264453
735,1584.53,8.03638888888904
736,1585.02,25.83019250253217
737,1586.57,7.653953488372698
738,1587.03,25.731249999999246
739,1588.58,7.481818181818938
740,1589.03,33.03999999999985
741,1591.04,24.31879743716131
742,1592.53,7.754695399916593
743,1593.07,21.099197324415243
744,1594.53,29.94248630425542
745,1596.59,5.912613588996595
746,1597.0,21.921363062683923
747,1598.51,4.821696079961727
748,1599.12,13.73423520369099
749,1600.68,5.38457680250654
750,1601.36,10.122451678535683
751,1602.77,2.4780572711954107
752,1603.1,10.896486728303646
753,1604.51,4.42415006408085
754,1605.15,11.533715672887412
755,1606.63,5.896986613500221
756,1607.41,9.744301075268746
757,1608.67,2.9441567291302144
758,1609.06,13.20447834045192
759,1610.75,3.4285187539738065
760,1611.18,12.935776232054383
761,1612.86,4.546816862947399
762,1613.41,11.736492763377989
763,1614.84,3.089868891538247
764,1615.24,10.311229482811587
765,1616.55,4.108126520681192
766,1617.06,14.81292505498186
767,1618.86,1.942258404944972
768,1619.11,8.756113074205714
769,1620.25,4.92541499713864
770,1620.9,16.49547146655708
771,1622.71,4.353513091051273
772,1623.2,13.830800668771275
773,1624.8,1.6644815290260229
774,1625.02,9.359151147683118
775,1626.25,6.9600912721055135
776,1627.17,10.675560135432557
777,1628.56,4.234017946161103
778,1629.12,11.891150822016964
779,1630.69,4.2789234956150075
780,1631.24,12.155705765406799
781,1632.85,1.5581501137228715
782,1633.05,12.09161910868861
783,1634.56,4.177722732721936
784,1635.13,10.808289582756313
785,1636.58,3.8968539627193914
786,1637.11,7.599729729731206
787,1638.14,4.622363510711004
788,1638.76,12.949143323361437
789,1640.51,4.077886063360998
790,1641.05,11.85610859728472
791,1642.6,14.890255807115974
792,1644.54,6.345663458733769
793,1645.37,9.189173372348556
794,1646.57,5.938106889890607
795,1647.31,11.9109175738724
796,1648.82,4.0018349666238535
797,1649.35,9.406172270843285
798,1650.55,3.3084473049078165
799,1651.0,11.52435836700544
800,1652.54,4.069963208241145
801,1653.07,15.688310929280775
802,1655.12,16.924626416840333
803,1656.85,1.83835511413161
804,1657.07,11.681875709881918
805,1658.52,4.443680534466555
806,1659.09,12.507802717973277
807,1660.69,2.365962516344201
808,1661.0,12.172253253398992
809,1662.59,4.490271519354083
810,1663.18,12.447462686566391
811,1664.79,2.4416859279396386
812,1665.12,12.976775956284154
813,1666.87,1.0853677574309768
814,1667.01,13.354595928439593
815,1668.71,3.36053777208765
816,1669.13,10.389927466811631
817,1670.53,4.873045181144898
818,1671.18,11.125819682703208
819,1672.72,4.15070049775346
820,1673.31,9.486869158878575
821,1674.55,4.794328241285358
822,1675.21,9.766106080206328
823,1676.56,4.679517525188915
824,1677.18,11.519576096555785
825,1678.68,5.33543090116715
826,1679.39,9.578873618970292
827,1680.69,2.835483073880921
828,1681.09,11.904334663548557
829,1682.69,5.045247813409967
830,1683.35,11.729070077272516
831,1684.95,1.398802395209899
832,1685.15,9.663393177736829
833,1686.57,4.442986822841594
834,1687.15,11.88808570623007
835,1688.73,4.547778107385901
836,1689.32,9.562730375426352
837,1690.61,5.839838502478067
838,1691.29,9.3281305637985
839,1692.5,6.017983260263707
840,1693.17,15.08509485094704
841,1694.57,4.866071677590975
842,1695.22,11.14760850044939
843,1696.66,3.5429375169057336
844,1697.14,10.16288925369254
845,1698.56,4.725882352941995
846,1699.19,9.90763830598923
847,1700.57,4.089694019471564
848,1701.06,14.07663299663283
849,1702.58,4.394678111587757
850,1703.11,11.49171456248033
851,1704.54,4.422071857962785
852,1705.13,11.962857142856592
853,1706.71,3.971851851851647
854,1707.24,10.545871752514618
855,1708.6,6.13663903541972
856,1709.39,10.466232909004681
857,1710.71,3.9084990059638915
858,1711.26,11.014433781189823
859,1712.79,1.9313068097153927
860,1713.04,13.260768660038792
861,1714.76,2.5491418355179123
862,1715.09,11.401123433674204
863,1716.59,4.574353233832065
864,1717.17,10.755999392926686
865,1718.55,4.88186910462999
866,1719.19,11.139026374491337
867,1720.72,4.1041683977285075
868,1721.27,11.406315789473897
869,1722.74,3.02697969543053
870,1723.12,12.856488499091114
871,1724.7,2.7605602240889713
872,1725.04,12.804909959573763
873,1726.53,6.490464807438274
874,1727.14,15.5389048020203
875,1728.55,5.515295621604784
876,1729.01,18.666501547986655
877,1730.6,4.350136275147548
878,1731.14,10.604547069270545
879,1732.57,4.908329455560726
880,1733.07,15.747178139779392
881,1734.56,6.169273084478769
882,1735.12,18.009058882737797
883,1736.87,1.2962993039448705
884,1737.04,14.313892668179514
885,1738.88,2.5588716502109494
886,1739.22,10.566143418734374
887,1740.65,3.2199166982190697
888,1741.1,12.263157601892527
889,1742.74,3.939555067289003
890,1743.27,11.602033898304615
891,1744.84,1.3000464037127568
892,1745.02,11.381173953736797
893,1746.57,3.069608396343838
894,1747.02,14.184935743847513
895,1749.13,10.6623014929303
896,1750.59,3.8562393162392476
897,1751.1,11.635079294501189
898,1752.61,15.750882105853725
899,1754.71,3.129051987766517
900,1755.11,11.47035502958587
901,1756.6,3.6371407208017663
902,1757.07,13.157897524162252
903,1758.87,1.0005559662879908
904,1759.0,11.996559461480576
905,1760.55,6.242772277228497
906,1761.43,8.9121181772659
907,1762.68,2.574852320674304
908,1763.06,12.989048596851472
909,1764.81,1.3618169168077103
910,1765.02,50.844452375641374
911,1772.51,123.52781914893635
912,1778.5,10.289124668435013
913,1779.0,31.056567263087953
914,1780.51,11.238681909884919
915,1781.05,32.10206896551612
916,1782.61,32.72331288343635
917,1784.56,6.919306157850379
918,1785.39,10.099358919073762
919,1786.72,3.0013452914787973
920,1787.12,10.98167264038288
921,1788.54,4.8861564434446905
922,1789.19,12.448314238951324
923,1790.87,1.6257050926440204
924,1791.11,9.739219630817214
925,1792.55,4.4054307493180165
926,1793.13,11.125544927926647
927,1794.64,4.22732497784471
928,1795.23,12.849531121469838
929,1796.96,1.3966587112175013
930,1797.16,10.950950850886144
931,1798.73,2.9508220702805734
932,1799.1,13.33448441247108
933,1800.71,3.1028145099052704
934,1801.14,12.103537047051521
935,1802.78,2.779359679840633
936,1803.17,10.094738109571335
937,1804.61,3.3768152866244
938,1805.08,12.945588547189686
939,1806.85,1.3841803949062617
940,1807.05,10.99827304550859
941,1808.64,5.053650525297472
942,1809.36,8.41649562544362
943,1810.57,3.0824332772304857
944,1811.01,10.899437570303093
945,1812.61,14.407606589148564
946,1814.66,4.874688796679231
947,1815.36,7.991438807350615
948,1816.52,16.23022900763302
949,1818.86,1.5907779788060905
950,1819.08,11.247725604355052
951,1820.65,3.134836260084162
952,1821.1,11.965676867567286
953,1822.73,2.178687649290158
954,1823.02,11.299200806756065
955,1824.6,3.3451198552691714
956,1825.09,10.516784735169495
957,1826.65,3.164135818226993
958,1827.09,13.114191580232745
959,1828.95,1.210785562631595
960,1829.12,9.729945212628241
961,1830.46,14.773045794747802
962,1832.52,3.952641770400903
963,1833.05,11.541303306181756
964,1834.7,4.3334880123736665
965,1835.3,8.878718291055007
966,1836.51,4.902133260214482
967,1837.17,11.077513242263866
968,1838.65,4.451759318152123
969,1839.27,11.923548387097645
970,1840.89,0.8794141925168409
971,1841.01,16.09822624694642
972,1843.13,15.075508228460794
973,1844.63,3.689585928910285
974,1845.06,16.12857142857102
975,1846.86,1.4082871570906188
976,1847.05,10.010324469383288
977,1848.47,6.710182575665068
978,1849.42,6.580132450330129
979,1850.32,6.730289944479039
980,1851.27,9.960202556065136
981,1852.69,4.304670134135787
982,1853.27,8.74790117534181
983,1854.52,4.855657311669731
984,1855.18,9.509201803234884
985,1856.48,5.771851089821571
986,1857.28,9.966982408661359
987,1858.63,4.268150064682461
988,1859.22,24.520053814071844
989,1862.55,189.35375629405868
990,1869.04,31.16778523489933
991,1870.54,10.355614973262032
992,1871.04,73.95729729729653
993,1874.58,8.099821958458172
994,1875.01,28.051661807580004
995,1876.52,9.740577489687343
996,1877.04,18.561769911504598
997,1878.03,48.56058997049994
998,1880.62,3.544186046511986
999,1881.07,10.991967100754078
1000,1882.55,4.12820081334982
1001,1883.1,11.117359179660202
1002,1884.58,4.646317260657769
1003,1885.2,12.324016521862088
1004,1886.83,1.4178908188590624
1005,1887.01,12.407877474354247
1006,1888.64,16.30378727991245
1007,1890.56,6.471159461782428
1008,1891.14,18.902337662337
1009,1892.7,4.267912159946449
1010,1893.05,16.47746686303439
1011,1894.5,6.633803849678452
1012,1895.07,18.3444328552802
1013,1896.58,4.920367327211305
1014,1897.07,14.081810699588146
1015,1898.61,5.832530446550801
1016,1899.4,8.61368141839909
1017,1900.55,4.697586123826094
1018,1901.22,11.12213968957878
1019,1902.71,2.6560518848796835
1020,1903.07,12.174324324324996
1021,1904.72,3.361973422942303
1022,1905.15,10.579500216668105
1023,1906.54,6.167146574153964
1024,1907.35,10.202410423453575
1025,1908.73,3.2723465703975965
1026,1909.16,11.412536992197674
1027,1910.71,3.6496117051216226
1028,1911.13,14.956430740481016
1029,1912.65,3.750436487462175
1030,1913.22,12.524676724138267
1031,1914.92,1.2244529848823094
1032,1915.09,10.425601558694721
1033,1916.57,4.777909620183724
1034,1917.21,10.76831289531438
1035,1918.7,3.4429156690611205
1036,1919.17,10.413567735262452
1037,1920.61,3.3547523709170197
1038,1921.07,11.932017342515254
1039,1922.73,3.3348031496067128
1040,1923.17,10.660390913893558
1041,1924.63,2.873662011968328
1042,1925.01,12.690998009667812
1043,1926.69,4.03617942951778
1044,1927.27,9.678123227635398
1045,1928.61,3.185239699404386
1046,1929.05,11.963346872462285
1047,1930.67,4.969521389240751
1048,1931.33,11.752671500280087
1049,1932.9,1.2617770286528374
1050,1933.08,8.4415740740746
1051,1934.25,5.508242498468883
1052,1935.03,7.892214870472689
1053,1936.19,18.0627135678383
1054,1938.57,3.590583782210137
1055,1939.04,12.141624348411112
1056,1940.52,4.012105913019348
1057,1941.06,11.451670352351536
1058,1942.55,5.9478813118163005
1059,1943.37,8.387254167205658
1060,1944.53,4.458747865679518
1061,1945.12,10.577167985928716
1062,1946.5,4.392871775884702
1063,1947.12,11.987666419203554
1064,1948.81,13.314997503745225
1065,1950.68,4.82724780701653
1066,1951.33,10.765937082472782
1067,1952.86,1.3203201707582044
1068,1953.04,12.001996283515465
1069,1954.68,2.8316787781736865
1070,1955.08,11.792261357836349
1071,1956.72,2.828199459591273
1072,1957.12,11.757539384846861
1073,1958.77,2.8304761904767557
1074,1959.18,9.433341869397815
1075,1960.49,17.278896703902436
1076,1962.81,2.4560670535149134
1077,1963.15,10.899277108433605
1078,1964.67,2.5316606311426426
1079,1965.02,11.858812877264166
1080,1966.68,4.548689299526599
1081,1967.28,12.404202942060499
1082,1968.88,2.3827307578881087
1083,1969.19,12.421375884388876
1084,1970.79,2.0604004071937565
1085,1971.04,14.273336512477853
1086,1972.83,1.385160112826211
1087,1973.0,11.55981283813416
1088,1974.51,4.505709978896029
1089,1975.09,11.81783928290619
1090,1976.58,5.394574132493778
1091,1977.14,12.027945205478641
1092,1978.76,4.736748768473727
1093,1979.39,10.312587486743368
1094,1980.8,1.5821543681088408
1095,1981.01,12.003441317047997
1096,1982.65,4.312866410697138
1097,1983.24,11.071141602634535
1098,1984.73,2.504797979797329
1099,1985.08,11.79883924956235
1100,1986.68,4.0653824695343665
1101,1987.21,10.186614546976774
1102,1988.57,4.016107613050738
1103,1989.1,12.077828696127376
1104,1990.73,3.7351967116859086
1105,1991.15,14.952285780994451
1106,1992.67,7.25082999427438
1107,1993.32,13.785178498153385
1108,1994.83,3.0188001076142696
1109,1995.24,10.433871308017341
1110,1996.67,4.4465789473676915
1111,1997.28,9.92057739030972
1112,1998.59,6.001535893155117
1113,1999.36,10.309763593381735
1114,2000.7,3.3038596491232166
1115,2001.14,10.259682539681364
1116,2002.57,4.708746431352852
1117,2003.22,10.558561565016294
1118,2004.61,3.3223274695537865
1119,2005.06,13.480786426071703
1120,2006.89,0.7694408945671571
1121,2006.995,11.631446885224278
1122,2008.58,3.7373176950534135
1123,2009.1,11.279988410836008
1124,2010.58,4.585979059229227
1125,2011.16,12.369195870291446
1126,2012.78,2.8908763308770724
1127,2013.17,12.209782110090984
1128,2014.78,2.078373021742206
1129,2015.05,11.098078291815366
1130,2016.49,6.121341222879088
1131,2017.33,9.283413999479375
1132,2018.61,3.5523364485984894
1133,2019.06,13.061255006675367
1134,2020.84,1.7716049382716048
1135,2021.09,10.283045310854128
1136,2022.5,6.7219256712080435
1137,2023.42,11.50912386706963
1138,2024.9,1.6999782962562386
1139,2025.13,10.668633548222429
1140,2026.62,3.120286570275309
1141,2027.05,10.899008220631199
1142,2028.54,4.538483986645942
1143,2029.18,11.494627652893925
1144,2030.79,12.899405469679905
1145,2032.64,3.706149957875737
1146,2033.04,16.314803392445306
1147,2034.89,1.4393478260856472
1148,2035.08,11.049493100150361
1149,2036.57,5.457918045304083
1150,2037.33,9.271016412323846
1151,2038.55,4.058691019786768
1152,2039.07,15.45114785073388
1153,2040.63,4.712541966425185
1154,2041.04,17.213387470997375
1155,2042.57,5.610491803279132
1156,2043.03,19.561702983572683
1157,2044.61,7.0763648603184235
1158,2045.18,17.082575107295312
1159,2046.5,27.69392354124699
1160,2047.01,83.78096774194587
1161,2048.55,14.90579212915555
1162,2049.06,39.349945355198074
1163,2050.53,12.33886914377457
1164,2051.04,35.23303514377607
1165,2052.51,12.032102728731944
1166,2053.01,34.76897138437232
1167,2054.5,13.004369747898705
1168,2055.02,41.782442748091604
1169,2056.52,15.063493360578459
1170,2057.03,43.805696594421285
1171,2058.5,16.034614594037976
1172,2059.04,42.99414829659372
1173,2060.52,13.604822695034986
1174,2061.04,38.98810810811486
1175,2062.51,13.003521126760564
1176,2063.01,39.358623124442204
1177,2064.52,13.032656663724627
1178,2065.02,39.79783496007051
1179,2066.54,13.088526863090523
1180,2067.05,38.723982683976615
1181,2068.56,5.473809523811334
1182,2069.11,17.105006045949423
1183,2070.59,4.906018774155941
1184,2071.04,17.559086078640714
1185,2072.69,4.190178571427483
1186,2073.04,17.851995043370295
1187,2074.56,3.673360107095047
1188,2075.06,11.274595520047445
1189,2076.55,5.41975951903639
1190,2077.31,14.183514227045357
1191,2079.16,13.410918585334732
1192,2080.51,5.278503118502763
1193,2081.05,15.983337453643514
1194,2082.62,4.669283258397828
1195,2083.06,15.316933578369909
1196,2084.51,6.285184064545289
1197,2085.12,14.683346613546979
1198,2086.5,7.224221378188521
1199,2087.17,13.864332925335495
1200,2088.54,5.08819203268887
1201,2089.03,16.199999999997146
1202,2090.58,5.281344537815326
1203,2091.06,16.7021686746984
1204,2092.6,4.824218701463719
1205,2093.01,18.48751248751249
1206,2094.51,7.139336492889913
1207,2095.11,16.336196319019464
1208,2096.51,6.713600944506516
1209,2097.1,16.63190169690165
1210,2098.57,5.310788358293506
1211,2099.05,18.137181052016075
1212,2100.66,4.048695652175345
1213,2101.02,17.457245508981828
1214,2102.54,6.283914707489643
1215,2103.12,18.034552133372216
1216,2104.75,3.153580246913025
1217,2105.06,17.59471698113245
1218,2106.77,3.1870321811696876
1219,2107.09,16.53463666925189
1220,2108.67,3.967227749393828
1221,2109.04,16.983112033193876
1222,2110.66,3.9200220446417835
1223,2111.02,16.52483861914117
1224,2112.52,6.263432145770223
1225,2113.1,15.722582317863624
1226,2114.6,4.971034482760748
1227,2115.11,15.12524453694126
1228,2116.55,5.5863611365721635
1229,2117.03,16.061711832573117
1230,2118.53,7.3942236774071795
1231,2119.42,8.273366093366608
1232,2120.59,3.524695363390945
1233,2121.08,10.541232320749428
1234,2122.57,6.0742303218279305
1235,2123.41,11.071150219988729
1236,2124.96,1.535456351834946
1237,2125.17,10.09409347714498
1238,2126.57,7.827140226253939
1239,2127.31,10.803952424521542
1240,2128.57,4.860294323755522
1241,2129.15,11.145839536806392
1242,2130.52,3.969771454519634
1243,2131.03,13.82542682926815
1244,2132.8,3.102522364496541
1245,2133.17,12.016249791282386
1246,2134.64,5.274164546228313
1247,2135.28,10.880113515430697
1248,2136.57,4.693209144790153
1249,2137.14,14.522241215577255
1250,2138.8,2.2775988093248674
1251,2139.08,13.921313672924487
1252,2140.78,2.8835537470321433
1253,2141.13,12.26501015571926
1254,2142.62,5.512074026803244
1255,2143.31,10.203934426231276
1256,2144.57,5.793563218390949
1257,2145.3,9.849894640401267
1258,2146.56,5.260726348825516
1259,2147.24,11.24334085778854
1260,2148.64,3.856872096626203
1261,2149.13,11.586113328011315
1262,2150.58,4.56438602116194
1263,2151.15,11.775467032967637
1264,2152.57,4.757215909088299
1265,2153.2,11.131329092736229
1266,2154.56,5.322388591800777
1267,2155.25,10.607493734336991
1268,2156.59,3.8207096107478047
1269,2157.05,14.619576596099053
1270,2158.84,2.387981029809999
1271,2159.13,12.36262480155062
1272,2160.6,5.487105748282814
1273,2161.27,10.492091388400704
1274,2162.52,4.136021872863978
1275,2163.02,13.469339853301797
1276,2164.63,5.321163801244074
1277,2165.24,6.905751680227768
1278,2166.06,5.846127067017074
1279,2166.76,14.650793438232043
1280,2168.55,3.7142419601822656
1281,2169.0,6.143812047341612
1282,2169.73,11.562199968207102
1283,2171.18,11.113602484474487
1284,2172.59,3.5859977774235388
1285,2173.04,12.37282831418943
1286,2174.61,4.029550251664231
1287,2175.11,13.480999324779507
1288,2176.75,3.5446776771449935
1289,2177.17,12.13854604200133
1290,2178.68,5.330802348339093
1291,2179.34,9.779253112031713
1292,2180.54,5.947630208336204
1293,2181.03,18.948990042671674
1294,2182.5,6.6869141357330335
1295,2183.0,20.353144496237334
1296,2184.57,5.909355980184473
1297,2185.03,19.175003479468117
1298,2186.54,7.660481283421112
1299,2187.16,17.964270833333554
1300,2188.64,5.105826771656999
1301,2189.07,18.983054938071888
1302,2190.66,4.415458701616629
1303,2191.04,16.644637681159626
1304,2192.52,7.305779398360427
1305,2193.15,16.66941176470416
1306,2194.56,5.304956493716416
1307,2195.0,18.206466119722347
1308,2196.57,4.2142965030371204
1309,2197.09,12.267971493132347
1310,2198.56,3.9838495971373424
1311,2199.03,13.98838552256982
1312,2200.57,6.527850964734055
1313,2201.1,18.5618615340454
1314,2202.76,3.101446424910107
1315,2203.1,13.263985765125938
1316,2204.67,3.755841446451889
1317,2205.12,13.96956552455223
1318,2206.78,3.0263081695960237
1319,2207.11,12.712729943088094
1320,2208.59,5.122473908000904
1321,2209.17,13.177195571953526
1322,2210.7,2.7719233050045666
1323,2211.01,14.624516129031123
1324,2212.65,3.7094708994696886
1325,2213.04,17.778031088085225
1326,2214.57,6.894283476898982
1327,2215.07,20.809336016096836
1328,2216.55,6.730949227369948
1329,2217.06,20.342809917358895
1330,2218.53,7.942891748671084
1331,2219.12,19.099300984054075
1332,2220.65,4.442430939227289
1333,2221.07,10.975123859192072
1334,2222.51,7.679236710586097
1335,2223.01,24.64946635730745
1336,2224.59,6.815147058824375
1337,2225.03,24.419768339768048
1338,2226.55,7.505495699408155
1339,2227.04,22.23712488769148
1340,2228.5,8.88645739910254
1341,2229.04,25.127619047618747
1342,2230.56,7.805237861697206
1343,2231.04,26.2350000000024
1344,2232.63,5.766867350311802
1345,2233.1,19.982072141216044
1346,2234.57,9.38115761353352
1347,2235.19,19.249618768327394
1348,2236.52,7.184043973301672
1349,2237.04,21.91929515418557
1350,2238.5,7.248578967206447
1351,2239.04,24.241857585141236
1352,2240.65,4.930203940544537
1353,2241.04,18.889538354740935
1354,2242.53,6.972301740809146
1355,2243.04,21.745000000002843
1356,2244.57,7.52384037015187
1357,2245.24,11.958515264662736
1358,2246.5,7.200800160033643
1359,2247.3,11.80173913043218
1360,2248.62,4.0241557075225085
1361,2249.1,12.970420414909164
1362,2250.61,4.242758898047661
1363,2251.08,14.904018288037141
1364,2252.52,5.688395320410713
1365,2253.2,13.56163424124691
1366,2254.73,3.913469847828589
1367,2255.18,13.142686567164853
1368,2256.6,4.5921363952694385
1369,2257.15,11.480940535013431
1370,2258.54,3.9238337102125973
1371,2259.01,12.662366187424066
1372,2260.53,5.01430987942872
1373,2261.12,15.028605341248893
1374,2262.8,1.7850275807706382
1375,2263.0,14.976593886462577
1376,2264.79,3.7212367086539833
1377,2265.25,10.850903130635501
1378,2266.59,5.641724022720125
1379,2267.28,10.268756305444578
1380,2268.51,5.125335898668212
1381,2269.15,11.268406286968851
1382,2270.52,6.222618384399384
1383,2271.24,10.417136235724191
1384,2272.52,4.286381534283624
1385,2273.04,12.111982363915953
1386,2274.51,4.10681633925773
1387,2275.03,13.504068589240656
1388,2276.74,2.8265352025891985
1389,2277.1,12.9464049656092
1390,2278.68,2.728760064413406
1391,2279.02,15.264072534945221
1392,2280.77,2.2836304874760325
1393,2281.08,12.820012523480663
1394,2282.7,4.11595479571111
1395,2283.24,11.274782608695933
1396,2284.7,5.01327212284399
1397,2285.33,9.246169047938576
1398,2286.59,5.401653905054026
1399,2287.28,11.534899154195166
1400,2288.71,2.485908953875254
1401,2289.03,12.476292741449173
1402,2290.64,3.515022719329515
1403,2291.06,13.525601683565778
1404,2292.6,4.1283179977918385
1405,2293.08,13.131069966868218
1406,2294.56,3.552063541506592
1407,2295.01,12.388100929614726
1408,2296.53,4.348946034043619
1409,2297.04,12.644370530518696
1410,2298.59,3.3973699705599607
1411,2299.01,17.491997845984447
1412,2300.64,2.9214814814825147
1413,2301.0,14.220687593421914
1414,2302.64,5.388569218871968
1415,2303.25,12.628918145392579
1416,2304.69,2.981964486400914
1417,2305.0,18.351220850480704
1418,2306.69,2.8139856312020255
1419,2307.03,13.08685154975442
1420,2308.65,5.335563743551013
1421,2309.27,12.006295731706363
1422,2310.64,3.8560365853663323
1423,2311.08,13.663356164384314
1424,2312.73,2.7050283553870473
1425,2313.04,19.917614165891603
1426,2315.34,12.414516207653119
1427,2316.57,4.77311897105888
1428,2317.08,13.859737609328512
1429,2318.7,4.690933633295522
1430,2319.24,14.91943152454917
1431,2320.83,3.860056313622195
1432,2321.24,12.628160676533952
1433,2322.6,3.9593090211156445
1434,2323.05,14.154789337916958
1435,2324.56,4.3438964935308455
1436,2325.06,13.280322190900407
1437,2326.53,7.971937765202877
1438,2327.25,14.157268907564562
1439,2328.59,6.531996418976922
1440,2329.02,23.831339648172374
1441,2330.58,4.543520939927831
1442,2331.1,15.091693437358357
1443,2332.65,5.433367037410703
1444,2333.25,13.707539698098088
1445,2334.79,2.6647737650474035
1446,2335.08,12.207025948106276
1447,2336.51,5.546633102579399
1448,2337.11,13.025334160977286
1449,2338.53,10.482043096568237
1450,2339.28,13.320332208668379
1451,2340.55,4.249891031014586
1452,2341.01,14.978396266437345
1453,2342.62,4.3452223120454345
1454,2343.1,14.825684695051606
1455,2344.62,4.510544286001205
1456,2345.12,13.342569373073303
1457,2346.58,4.8752505718462995
1458,2347.11,13.558959887119531
1459,2348.61,4.066093689508645
1460,2349.07,14.933173891380541
1461,2350.53,5.452643224019199
1462,2351.14,13.568888888889585
1463,2352.56,5.593653603037165
1464,2353.03,20.297376369555877
1465,2354.81,2.5097818258841773
1466,2355.08,13.256902637319218
1467,2356.56,4.464088307442874
1468,2357.05,15.7478594950584
1469,2358.5,4.818574338087359
1470,2359.03,14.141094611794486
1471,2360.55,4.743529411764886
1472,2361.03,14.549627369796998
1473,2362.57,4.330933633294087
1474,2363.02,15.059167809786862
1475,2364.57,6.685687053217092
1476,2365.05,18.789565217391537
1477,2366.53,8.285056890008411
1478,2367.1,19.03590669676546
1479,2368.52,7.533020134227925
1480,2369.04,20.522220434433336
1481,2370.5,8.513934216145877
1482,2371.08,20.93739542226033
1483,2372.59,7.48833333332951
1484,2373.16,17.823851640514963
1485,2374.54,6.670137362639881
1486,2375.07,22.717241379306902
1487,2376.87,1.3126881720460806
1488,2377.01,5.039429857463734
1489,2377.59,10.47236559139833
1490,2378.78,17.660745156482548
1491,2380.82,2.085383056343902
1492,2381.05,13.217745187900697
1493,2382.59,3.885804028677076
1494,2383.06,13.152549555708653
1495,2384.65,3.168442481276327
1496,2385.01,14.156447547022658
1497,2386.61,3.98872944693604
1498,2387.07,12.915761827666692
1499,2388.59,5.916409849085272
1500,2389.25,12.11858849476074
1501,2390.66,4.63751107959735
1502,2391.21,11.959011627907755
1503,2392.61,4.904636467452891
1504,2393.17,14.980620250563634
1505,2394.81,2.3871976828402284
1506,2395.09,13.303734087693872
1507,2396.67,3.6880321285146955
1508,2397.09,14.780447234208198
1509,2398.75,3.3388724685265507
1510,2399.14,12.161441441443918
1511,2400.57,4.325765507348299
1512,2401.08,13.67423560808187
1513,2402.64,3.8905442572152804
1514,2403.08,12.315097052482546
1515,2404.53,4.812265383292624
1516,2405.11,12.232915884661471
1517,2406.59,3.8616431027899325
1518,2407.03,14.617262357411105
1519,2408.7,16.522553191492413
1520,2410.57,3.6624132423407803
1521,2411.05,14.591341821742255
1522,2412.69,2.7349595600141114
1523,2413.03,12.609991623387204
1524,2414.57,4.82141361256321
1525,2415.08,14.432705117791736
1526,2416.67,4.779324796274416
1527,2417.21,11.405958940166009
1528,2418.57,4.774424265116522
1529,2419.12,12.617434679337684
1530,2420.53,5.374510525237323
1531,2421.12,12.59860027994483
1532,2422.52,4.7271187130928904
1533,2423.04,14.750171793846237
1534,2424.68,3.1442092665421923
1535,2425.06,12.867636100562539
1536,2426.57,3.77760821716848
1537,2427.01,13.491362497588813
1538,2428.54,4.972102335928636
1539,2429.06,14.197404921700397
1540,2430.54,4.871496671676875
1541,2431.06,13.471193811415764
1542,2432.52,5.247950897074691
1543,2433.05,14.650519031141869
1544,2434.55,6.404892966357679
1545,2435.1,12.608410092111352
1546,2436.5,5.131140456183946
1547,2437.07,13.000713040106737
1548,2438.54,5.380334645671322
1549,2439.07,18.994453046109257
1550,2440.6,7.238893545683152
1551,2441.1,21.07602191319402
1552,2442.55,7.356930775642961
1553,2443.06,22.16091116173205
1554,2444.5,8.874599156119995
1555,2445.11,19.208087091758635
1556,2446.51,7.449847144002856
1557,2447.04,20.31297709923664
1558,2448.54,7.77675723049929
1559,2449.06,22.385784224841903
1560,2450.52,7.860770712913234
1561,2451.01,23.369152385363595
1562,2452.51,7.908016194331213
1563,2453.07,18.807495646116564
1564,2454.55,6.318352344737141
1565,2455.08,16.79484379739473
1566,2456.53,4.526834406083331
1567,2457.04,13.415370104574809
1568,2458.51,5.28252823459204
1569,2459.1,12.750153217569776
1570,2460.5,5.859069767441656
1571,2461.02,16.155465746674714
1572,2462.61,3.8987596270759375
1573,2463.04,14.395172832020723
1574,2464.63,3.6060180541633073
1575,2465.03,13.562008469449488
1576,2466.53,5.646441073512252
1577,2467.03,16.638488469018974
1578,2468.55,5.580039331363997
1579,2469.1,17.02055677197437
1580,2470.54,4.7422341376224155
1581,2471.1,15.287088607595123
1582,2472.58,5.624989747097418
1583,2473.26,11.422389133040188
1584,2474.53,4.289996724531184
1585,2475.06,14.778933074685416
1586,2476.73,4.536074060079192
1587,2477.25,12.298987290701172
1588,2478.61,3.6964662621791406
1589,2479.04,14.27226308620467
1590,2480.65,4.771218568665056
1591,2481.19,11.954657980457146
1592,2482.55,4.580656266809804
1593,2483.09,13.260406582768635
1594,2484.59,3.507371105846815
1595,2485.0,15.130548459802762
1596,2486.74,2.126593112673133
1597,2487.0,13.751589781289422
1598,2488.6,3.397243271046622
1599,2489.01,14.459082365946628
1600,2490.69,3.9359407632412413
1601,2491.14,12.565293005671553
1602,2492.58,6.025203564566171
1603,2493.3,10.962967690464897
1604,2494.52,4.438918526583041
1605,2495.04,13.209271148799036
1606,2496.5,7.242489241974642
1607,2497.09,20.872765072762455
1608,2498.54,6.826036036038958
1609,2499.05,20.02666172656226
1610,2500.56,7.263969754252819
1611,2501.1,22.3502863688443
1612,2502.75,1.4574943797248139
1613,2502.91,23.98380758255275
1614,2504.6,4.4821330039140435
1615,2505.09,12.419686262081644
1616,2506.65,4.938611793612649
1617,2507.28,10.72251486830701
1618,2508.58,5.092851693966473
1619,2509.11,13.269905489642271
1620,2510.58,5.1698427672949485
1621,2511.16,10.083632261704423
1622,2512.5,4.176394101878463
1623,2513.01,14.433250444046202
1624,2514.72,2.752473607950334
1625,2515.02,13.459418238995656
1626,2516.53,4.535496957403652
1627,2517.03,13.904485407065414
1628,2518.61,6.519247031565936
1629,2519.19,17.407449293175077
1630,2520.68,6.426365466339324
1631,2521.35,15.834319377235767
1632,2523.06,16.338393913780557
1633,2524.82,2.6929433820767663
1634,2525.13,12.59268182606989
1635,2526.64,18.717201921070963
1636,2528.67,3.280237168798422
1637,2529.05,14.313655705995167
1638,2530.67,5.674416182656701
1639,2531.3,11.610894368788323
1640,2532.65,3.486846846845609
1641,2533.06,12.728871343979904
1642,2534.56,4.201280683033497
1643,2535.01,14.314567712315252
1644,2536.64,4.546862265688672
1645,2537.14,12.54669644519127
1646,2538.59,5.263668341705855
1647,2539.16,13.130637007080328
1648,2540.61,5.670672713530649
1649,2541.26,11.973715999140904
1650,2542.54,4.851387559808285
1651,2543.08,12.518759391254736
1652,2544.5,5.503519605986936
1653,2545.13,14.400487333205373
1654,2546.76,3.5293845263328887
1655,2547.16,12.285768863420092
1656,2548.56,4.911824694481416
1657,2549.09,13.212925562608195
1658,2550.59,6.297293233080026
1659,2551.06,19.413800145879158
1660,2552.54,7.429641873278518
1661,2553.02,24.090120036937268
1662,2554.57,6.153715170276151
1663,2555.02,21.46864269992807
1664,2556.65,4.430558213714802
1665,2557.02,17.36801980198041
1666,2558.5,7.165696877382751
1667,2559.03,21.375153751537518
1668,2560.53,8.262525050100201
1669,2561.03,24.209770992366124
1670,2562.55,7.374167468720506
1671,2563.01,25.140387866728787
1672,2564.54,7.832483221480291
1673,2565.03,24.29268292682927
1674,2566.53,9.853709285361752
1675,2567.14,22.58573877962894
1676,2568.5,8.90077972709846
1677,2569.05,24.24003724394359
1678,2570.6,8.112763455453086
1679,2571.13,22.835121951217154
1680,2572.54,6.651861198738423
1681,2573.02,24.974224806204482
1682,2574.57,8.261440329214427
1683,2575.06,23.57267175572548
1684,2576.54,7.392627707396554
1685,2577.06,22.63705476300102
1686,2578.52,7.0
1687,2579.02,20.936233766234025
1688,2580.5,8.73713561470083
1689,2581.1,20.621459227469153
1690,2582.5,7.798534201956977
1691,2583.05,22.325591026743698
1692,2584.56,6.762945205479987
1693,2585.02,22.14650205761577
1694,2586.57,6.533610149942577
1695,2587.05,12.838875140607911
1696,2588.01,12.164195624192775
1697,2589.02,19.20111665004918
1698,2590.58,5.66486332978416
1699,2591.02,20.576003080480447
1700,2592.53,7.634285714286004
1701,2593.01,24.635862068960723
1702,2594.6,6.848816793897765
1703,2595.03,24.444622383980686
1704,2596.62,6.6532384341645265
1705,2597.06,23.34673003802686
1706,2598.53,8.503449830887023
1707,2599.0,27.191111111110786
1708,2600.52,8.74761904762194
1709,2601.07,23.44005631158737
1710,2602.56,7.39980089597263
1711,2603.01,25.649278152067836
1712,2604.61,6.588659420287346
1713,2605.04,22.16945103206
1714,2606.52,9.546973004020344
1715,2607.04,25.27076923077288
1716,2608.55,6.639666110184165
1717,2609.01,24.2123502304139
1718,2610.57,8.624271330153682
1719,2611.07,25.97294696555141
1720,2612.54,8.13439668565541
1721,2613.02,25.69552111170529
1722,2614.5,9.08431034482727
1723,2615.02,25.83726787620474
1724,2616.51,8.811989100817438
1725,2617.01,29.178599311130952
1726,2618.6,7.680344456405689
1727,2619.04,25.11205561072821
1728,2620.57,7.67774294670536
1729,2621.02,26.217784843666884
1730,2622.54,8.793177966105457
1731,2623.05,22.50666666666723
1732,2624.51,6.857655273796158
1733,2625.03,21.303367799109402
1734,2626.64,5.2656891495613145
1735,2627.04,20.627767408472813
1736,2628.63,4.94306731436341
1737,2629.02,19.330656034795453
1738,2630.5,6.6040515653775325
1739,2631.0,20.192847682121844
1740,2632.53,6.619364375461936
1741,2633.03,21.15344994417155
1742,2634.62,5.6016006402573755
1743,2635.02,21.267849720223566
1744,2636.54,7.815467941058578
1745,2637.1,22.23646258503375
1746,2638.62,6.528985507246377
1747,2639.12,18.047586206900224
1748,2640.55,5.816422706174015
1749,2641.0,19.53302057019127
1750,2642.5,7.508652931853694
1751,2643.04,22.513254156768078
1752,2644.66,4.523379233347675
1753,2645.0,21.136951672864384
1754,2646.59,6.001162883311137
1755,2647.02,20.963875794989093
1756,2648.59,7.230554675118606
1757,2649.11,19.971227521498665
1758,2650.56,6.717381638538016
1759,2651.03,21.887124183006016
1760,2652.57,7.870659898476627
1761,2653.11,20.492727272724927
1762,2654.54,6.788103592317796
1763,2655.01,22.738625693551267
1764,2656.56,7.094115674772912
1765,2657.05,21.67070622649394
1766,2658.55,7.731605447791472
1767,2659.09,20.829733059548772
1768,2660.55,6.850389170893869
1769,2661.02,22.25021276595718
1770,2662.54,7.449953917050974
1771,2663.02,22.776492027335134
1772,2664.5,9.14995760715853
1773,2665.08,22.5197765363137
1774,2666.52,8.631716203259247
1775,2667.06,22.598494031221865
1776,2668.52,8.510416666666666
1777,2669.02,24.63403678606324
1778,2670.55,7.349864253393943
1779,2671.03,22.359820627799646
1780,2672.5,9.01613718411775
1781,2673.09,22.204849624057857
1782,2674.5,8.519054290720486
1783,2675.07,23.003989592363688
1784,2676.62,5.9840420868053945
1785,2677.02,21.906061643839095
1786,2678.51,7.806872246695762
1787,2679.03,22.867968160870333
1788,2680.61,6.408766898809373
1789,2681.06,22.356886832140827
1790,2682.6,6.616512141281174
1791,2683.04,23.80951712028313
1792,2684.63,5.891845493563571
1793,2685.03,21.184026402640523
1794,2686.51,7.792089041092146
1795,2687.04,22.579162539396943
1796,2688.52,31.104601449278427
1797,2690.55,8.269342033710455
1798,2691.02,24.329728682174057
1799,2692.53,8.999543094492042
1800,2693.06,24.478178137656062
1801,2694.53,9.29860609189007
1802,2695.08,24.413509234829746
1803,2696.5,9.437207433453239
1804,2697.07,25.55597560975184
1805,2698.6,8.002108464267916
1806,2699.08,23.41571358509162
1807,2700.52,8.459939577042896
1808,2701.03,27.590866989767175
1809,2702.61,7.43338521400837
1810,2703.07,23.184582315581128
1811,2704.5,8.570827653362535
1812,2705.03,24.33712294673997
1813,2706.51,8.761604010020854
1814,2707.04,25.13175475687166
1815,2708.5,9.904398073839122
1816,2709.07,25.01066111399972
1817,2710.54,9.58020491803554
1818,2711.11,25.280539419083432
1819,2712.6,7.877795786066365
1820,2713.05,25.893470015376117
1821,2714.59,7.160098183604227
1822,2715.03,25.057632241809678
1823,2716.54,8.012506012506012
1824,2717.04,24.78379344588243
1825,2718.55,7.5755889481305605
1826,2719.02,24.43019626615925
1827,2720.55,7.314705882349984
1828,2721.0,25.70107867392648
1829,2722.57,7.901794145420207
1830,2723.07,23.420294659296516
1831,2724.58,7.694760820045558
1832,2725.08,23.522283539486494
1833,2726.56,7.241596993894419
1834,2727.02,24.616131528049642
1835,2728.55,7.835667600373482
1836,2729.05,22.669660479855416
1837,2730.53,8.215907660021298
1838,2731.01,28.200659340653853
1839,2732.6,6.49781990521817
1840,2733.01,22.30488810881639
1841,2734.5,8.31875912408703
1842,2735.04,24.157361993164557
1843,2736.53,7.793437342724412
1844,2737.0,25.292271616999603
1845,2738.56,8.262547584190944
1846,2739.07,24.660720807303598
1847,2740.61,6.639999999997643
1848,2741.02,24.369045801529904
1849,2742.55,6.965289256195532
1850,2743.0,24.273474538082436
1851,2744.59,7.9944676979069085
1852,2745.11,23.50068455133767
1853,2746.62,6.668522980812964
1854,2747.06,22.998670260560377
1855,2748.57,7.458204667860232
1856,2749.06,23.56889287315382
1857,2750.61,6.3875683186637815
1858,2751.02,25.06703369719866
1859,2752.6,7.443446969701003
1860,2753.07,23.282740497419336
1861,2754.55,8.372347156900386
1862,2755.12,22.51598615916928
1863,2756.64,9.796721311477638
1864,2757.04,29.829999999999643
1865,2758.56,7.1045442418891325
1866,2759.03,23.062846648297814
1867,2760.52,7.60181818181847
1868,2761.0,24.545864374402477
1869,2762.54,7.9796560196598705
1870,2763.03,24.55517070757051
1871,2764.53,7.590043120341198
1872,2765.08,23.062489120977467
1873,2766.63,5.505239338553642
1874,2767.0,22.53734084019029
1875,2768.52,7.569054640072624
1876,2769.03,21.98600086843275
1877,2770.51,29.94178317287147
1878,2772.58,7.878365927860429
1879,2773.11,20.378763326224146
1880,2774.5,7.943525480370212
1881,2775.05,21.51510136532892
1882,2776.55,7.214851898206091
1883,2777.05,22.429290161892116
1884,2778.61,7.248986083498752
1885,2779.13,19.657621832356426
1886,2780.56,6.257210776548961
1887,2781.01,21.60549313358302
1888,2782.51,7.4174778574406774
1889,2783.02,21.664047217541384
1890,2784.51,6.982970297026137
1891,2785.08,21.95524069028603
1892,2786.51,7.830190735691192
1893,2787.02,23.855007078814207
1894,2788.53,8.07976653696498
1895,2789.03,23.874165872259294
1896,2790.53,7.4729847292922775
1897,2791.01,24.291021377668162
1898,2792.54,6.933002657219326
1899,2793.0,22.03249251817016
1900,2794.5,8.329999999999709
1901,2795.02,22.430486390004738
1902,2796.5,7.537007358956239
1903,2797.03,23.269479553899938
1904,2798.52,8.423520456711078
1905,2799.05,23.219509851030246
1906,2800.5,8.492082551594175
1907,2801.04,23.84474513438681
1908,2802.57,7.511798695247256
1909,2803.05,24.19505094614265
1910,2804.55,7.239148936170487
1911,2805.03,22.056066288705022
1912,2806.51,8.320998559769272
1913,2807.03,15.460171867929443
1914,2808.04,10.995221238938326
1915,2808.77,26.177971514889673
1916,2810.54,7.179429058375855
1917,2811.03,24.3032352941117
1918,2812.74,3.3434165995196423
1919,2813.11,11.52357142857011
1920,2814.54,6.537160446325758
1921,2815.02,21.00537313432811
1922,2816.54,15.38062318657817
1923,2818.69,3.0537423312892207
1924,2819.07,11.513084386945016
1925,2820.57,5.005748383886383
1926,2821.06,27.884661565631262
1927,2822.55,26.92485692188435
1928,2824.52,7.08766848053921
1929,2825.01,22.8782252559719
1930,2826.57,7.607763946515744
1931,2827.06,22.525860927154667
1932,2828.63,6.635663052544311
1933,2829.09,20.885342126958477
1934,2830.55,7.540431406381318
1935,2831.06,22.61253706057021
1936,2832.61,6.041030485184631
1937,2833.02,22.75982905983173
1938,2834.57,4.849150943394067
1939,2835.06,14.236475612497365
1940,2836.54,5.364685271950805
1941,2837.13,12.882844861272318
1942,2838.58,3.6964935940683237
1943,2839.03,13.000631800629513
1944,2840.58,4.355113755687633
1945,2841.1,12.87675675675844
1946,2842.63,4.459644883763344
1947,2843.15,12.842852919436403
1948,2844.64,4.672986512525849
1949,2845.17,12.992199022657815
1950,2846.53,4.403159154365809
1951,2847.02,15.031482479784213
1952,2848.79,3.6346379647734812
1953,2849.24,11.564838430968681
1954,2850.63,3.343983257761486
1955,2851.03,12.44156011531092
1956,2852.54,7.101434846265993
1957,2853.08,18.123866837390587
1958,2854.59,7.3791959798960765
1959,2855.1,21.36255632937321
1960,2856.6,7.250201096896068
1961,2857.07,22.583119266055608
1962,2858.53,7.712339159537895
1963,2859.11,19.968704663210147
1964,2860.54,7.94729718711704
1965,2861.1,21.295268456379528
1966,2862.57,6.520939991604582
1967,2863.02,23.05019906819038
1968,2864.6,6.81697478991966
1969,2865.07,22.776314199395234
1970,2866.61,3.846980802792625
1971,2867.07,13.851940906773994
1972,2868.75,4.3993738173076995
1973,2869.28,10.078568263165213
1974,2870.5,5.4604118993142645
1975,2871.15,13.137092941996167
1976,2872.72,3.9169369694783662
1977,2873.18,13.522784471217886
1978,2874.72,3.971119416268391
1979,2875.19,11.661843722562583
1980,2876.58,4.100485759219173
1981,2877.07,16.49432260410844
1982,2879.0,14.730759621197842
1983,2880.63,6.729360297149426
1984,2881.1,21.53158779301632
1985,2882.53,7.208798185937974
1986,2883.0,24.51364167041056
1987,2884.61,5.955244299675299
1988,2885.03,21.743643858202542
1989,2886.55,6.935938037862797
1990,2887.02,23.032027315409998
1991,2888.59,7.144418052253644
1992,2889.04,21.99759185480356
1993,2890.5,9.112716617833307
1994,2891.13,20.797531305901742
1995,2892.5,7.580357142857142
1996,2893.0,23.715859553123014
1997,2894.54,8.032818532818533
1998,2895.04,23.372830188679533
1999,2896.52,7.495472209673748
2000,2897.01,23.70225835591272
2001,2898.56,7.899158460160869
2002,2899.08,22.364444444444718
2003,2900.56,7.762936996687782
2004,2901.05,22.7381818181821
2005,2902.53,7.0657975986280555
2006,2903.01,21.51973266499267
2007,2904.5,7.243288590604027
2008,2905.0,23.32542893726206
2009,2906.59,6.778248175183323
2010,2907.03,22.75397981570837
2011,2908.55,7.8783942908115
2012,2909.07,21.867382550336398
2013,2910.51,9.230051234275553
2014,2911.1,22.899056603777893
2015,2912.55,7.832483221473021
2016,2913.04,23.50592557701739
2017,2914.53,7.213339214821624
2018,2915.01,23.14331387516811
2019,2916.53,8.118086391081926
2020,2917.05,22.47891598915683
2021,2918.52,7.872570905767321
2022,2919.03,22.909657089894935
2023,2920.5,8.06501698204755
2024,2921.0,27.42105480868481
2025,2922.62,6.224285714286486
2026,2923.06,21.793833992097134
2027,2924.63,6.87282275711214
2028,2925.09,22.079129646419695
2029,2926.53,7.303580080753977
2030,2927.01,24.007653758541302
2031,2928.57,6.514826048168795
2032,2929.0,23.65782668500997
2033,2930.53,7.920071877807451
2034,2931.05,22.459171294314928
2035,2932.58,7.548517823640061
2036,2933.06,21.13804357112425
2037,2934.5,8.16969080897845
2038,2935.06,21.637609427612862
2039,2936.55,6.755518672196294
2040,2937.02,21.59811922754331
2041,2938.51,7.592945064019482
2042,2939.04,21.114597233526542
2043,2940.53,8.243202614378049
2044,2941.11,20.85398671096084
2045,2942.56,6.167051282052047
2046,2943.0,21.658535374434244
2047,2944.51,6.7099030631998025
2048,2945.0,23.77893076249122
2049,2946.59,7.572378709373814
2050,2947.07,23.522283539486494
2051,2948.55,7.374032674118658
2052,2949.05,23.001644794400157
2053,2950.59,7.098422818788785
2054,2951.08,23.87026217228436
2055,2952.6,6.662528735636693
2056,2953.03,20.025985512771882
2057,2954.51,7.8021771950727405
2058,2955.07,21.040555782591184
2059,2956.55,7.1967420814449
2060,2957.02,22.313442622951094
2061,2958.5,7.4945054945054945
2062,2959.0,22.970220264320186
2063,2960.53,7.681625408684107
2064,2961.02,23.282740497419336
2065,2962.5,8.504447501149077
2066,2963.05,22.845766092471724
2067,2964.54,7.104897102061388
2068,2965.03,20.955053338598063
2069,2966.54,6.494914220358614
2070,2967.02,20.8397309062129
2071,2968.52,8.155677799609084
2072,2969.11,20.17119067443928
2073,2970.51,6.994936292639712
2074,2971.0,53.13903240124251
2075,2974.52,7.5147826086953895
2076,2975.04,25.69224129475115
2077,2976.62,5.9499144529541175
2078,2977.01,22.02221845892966
2079,2978.52,7.671625441699397
2080,2979.03,23.274570135746327
2081,2980.55,8.641463191585807
2082,2981.11,23.45714285714438
2083,2982.51,8.107347492088287
2084,2983.04,23.082226027399667
2085,2984.61,6.30588235294261
2086,2985.01,24.591968269707486
2087,2986.51,40.361253918477324
2088,2987.0,82.84767676767576
2089,2988.52,19.336545718433243
2090,2989.0,81.75307359307214
2091,2991.04,53.47784061696724
2092,2992.52,17.50441558441625
2093,2993.0,54.31365728901041
2094,2994.51,16.405754716973824
2095,2995.0,50.92703923900856
2096,2996.51,17.177391304340176
2097,2997.0,50.58977407847801
2098,2998.5,15.935340022296543
2099,2999.0,48.04035874439462
2100,3000.5,17.277581187008913
2101,3001.04,47.49947904870585
2102,3002.51,15.84888888888183
2103,3003.0,49.860340522132766
2104,3004.54,14.74684624018074
2105,3005.0,48.455730337085654
2106,3006.51,15.705594855298186
2107,3007.02,44.67868986694607
2108,3008.53,14.3897163120496
2109,3009.08,28.786683576416326
2110,3010.53,8.47737704918065
2111,3011.01,27.845885558581823
2112,3012.59,7.2473382820797285
2113,3013.01,26.477341705908472
2114,3014.56,8.173519014466134
2115,3015.03,30.627692307690896
2116,3016.61,9.265162574647881
2117,3017.06,25.033220686127883
2118,3018.55,8.405451822262702
2119,3019.06,24.88463352127145
2120,3020.54,8.661573033708194
2121,3021.02,28.679585730723964
2122,3022.58,6.943517978624719
2123,3023.01,25.936204146730464
2124,3024.51,9.170872483217224
2125,3025.02,26.249670329670654
2126,3026.5,9.844562737641628
2127,3027.06,25.669983844915592
2128,3028.53,9.96364786504883
2129,3029.11,23.389774730657106
2130,3030.55,7.832704533611875
2131,3031.01,25.01938662644153
2132,3032.52,8.021194605009635
2133,3033.02,23.52494673460275
2134,3034.53,8.698947368416874
2135,3035.06,23.945158730159328
2136,3036.52,9.187709130672175
2137,3037.04,24.4477916875316
2138,3038.52,8.28387855044429
2139,3039.03,24.24669612174412
2140,3040.52,8.067961165048544
2141,3041.02,24.327960199005275
2142,3042.5,9.115177743430607
2143,3043.04,25.538966942152452
2144,3044.55,9.391586051743204
2145,3045.07,26.607412961966645
2146,3046.6,7.043268318402782
2147,3047.01,27.17661814109317
2148,3048.52,8.029656750571801
2149,3049.04,25.250523045058383
2150,3050.53,8.090359408030382
2151,3051.0,26.68397565922769
2152,3052.6,6.68429133858772
2153,3053.01,25.23056389032222
2154,3054.5,8.225099601593627
2155,3055.0,24.68197530864554
2156,3056.51,8.411814092949623
2157,3057.02,24.48162188568991
2158,3058.53,8.152176414186059
2159,3059.04,25.385802650956403
2160,3060.6,6.639908466823717
2161,3061.03,23.321860465113105
2162,3062.5,8.571976481229377
2163,3063.06,23.25126073203768
2164,3064.58,7.294746543782754
2165,3065.05,22.864253731343855
2166,3066.51,9.387231920194708
2167,3067.08,24.72316297010549
2168,3068.62,5.143241455351617
2169,3069.01,23.029198919888383
2170,3070.52,8.689049313675344
2171,3071.04,23.196157869710515
2172,3072.5,8.550881035340666
2173,3073.02,25.500780031201245
2174,3074.52,8.725894074466241
2175,3075.03,27.132631578947045
2176,3076.55,7.213831775701506
2177,3077.01,23.791498324553718
2178,3078.5,8.849315068493151
2179,3079.0,26.717738287564078
2180,3080.53,8.826666666666071
2181,3081.07,25.605481406006945
2182,3082.6,7.865736118190711
2183,3083.07,24.00644501278498
2184,3084.5,9.244057377052238
2185,3085.05,24.47566700100331
2186,3086.53,9.569002557539871
2187,3087.1,24.188863399375585
2188,3088.52,9.509832572301057
2189,3089.09,23.55932135728273
2190,3090.52,9.890273224042753
2191,3091.08,24.796840981862037
2192,3092.51,8.05131541725228
2193,3093.02,25.255762224351667
2194,3094.6,6.238218923934628
2195,3095.0,24.793758325403513
2196,3096.56,7.636370967742539
2197,3097.02,26.71488065007466
2198,3098.62,6.777087378641951
2199,3099.04,24.59431715858319
2200,3100.53,8.073990511330248
2201,3101.0,31.326575342465432
2202,3102.77,2.676891915489408
2203,3103.09,11.722553191489963
2204,3104.51,6.061106176823351
2205,3105.18,11.807267128561712
2206,3106.52,4.670799640612506
2207,3107.07,13.74144258511204
2208,3108.63,4.237737200143215
2209,3109.13,12.224469200522332
2210,3110.64,5.479806464102145
2211,3111.26,12.020847936684383
2212,3112.64,4.451575562702869
2213,3113.15,12.891946144430541
2214,3114.69,5.149334341907473
2215,3115.28,11.173166697295944
2216,3116.58,5.25913043478352
2217,3117.21,11.859124911784239
2218,3118.62,4.292479240806806
2219,3119.1,13.721572052400681
2220,3120.74,4.3581818181836836
2221,3121.25,11.90630630630708
2222,3122.65,5.122049639710751
2223,3123.29,11.416042780747894
2224,3124.64,3.2948272521820137
2225,3125.05,12.96747583243608
2226,3126.58,6.3179469632207
2227,3127.01,22.43295354951797
2228,3128.51,8.536405529949683
2229,3129.06,22.598494031221865
2230,3130.52,8.74761904762194
2231,3131.07,24.061964735513353
2232,3132.52,9.725515832480905
2233,3133.1,24.063583815028903
2234,3134.6,6.163631060885585
2235,3135.07,21.491801029160058
2236,3136.53,8.382783725905785
2237,3137.1,16.101456283385275
2238,3138.56,5.588534667618497
2239,3139.22,11.685506786535452
2240,3140.61,4.240544900519806
2241,3141.11,14.125569985568747
2242,3142.77,3.318658008656925
2243,3143.16,12.837077566787599
2244,3144.76,4.090064336635285
2245,3145.25,11.04288945640246
2246,3146.54,5.10375545851635
2247,3147.15,11.536227951154073
2248,3148.55,4.155915833045878
2249,3149.05,12.668621597890905
2250,3150.56,4.2245951236874895
2251,3151.06,13.645667655785722
2252,3152.64,4.813122420907237
2253,3153.22,11.968285366843803
2254,3154.54,4.085418752085419
2255,3155.04,14.14719621429988
2256,3156.76,4.320042918452932
2257,3157.27,10.63842034806039
2258,3158.57,4.731402029930493
2259,3159.14,11.782023276636615
2260,3160.53,9.064444444440088
2261,3161.06,25.300602284531532
2262,3162.55,5.162589131186353
2263,3163.17,11.472849740932014
2264,3164.5,5.113534416087336
2265,3165.15,11.331994609165317
2266,3166.53,5.883031030341125
2267,3167.24,10.602260638299356
2268,3168.54,6.376797396814372
2269,3169.31,11.0568319691872
2270,3170.69,2.8202302009975995
2271,3171.03,12.618856872930943
2272,3172.62,3.739765748656664
2273,3173.09,11.59370981176138
2274,3174.51,4.285904527036942
2275,3175.02,12.834926603990834
2276,3176.6,5.299335548173499
2277,3177.25,10.746521739132298
2278,3178.51,5.441902763200872
2279,3179.16,13.204841213833417
2280,3180.73,2.9050822073915534
2281,3181.09,12.224469200522332
2282,3182.6,4.598583815028592
2283,3183.14,12.79604534473162
2284,3184.62,5.1005358309733
2285,3185.16,13.12181649675768
2286,3186.5,15.736263736263737
2287,3187.0,187.61111111111111
2288,3190.5,20.5985185185178
2289,3191.02,58.62655270655342
2290,3192.5,20.624935805990724
2291,3193.02,72.99267973857077
2292,3195.01,43.82778778778092
2293,3196.52,14.550200803212851
2294,3197.02,43.43484909457429
2295,3198.51,61.057973921762645
2296,3200.61,11.017801364670621
2297,3201.09,14.464954219253402
2298,3202.51,5.607038659301875
2299,3203.15,13.018104801898694
2300,3204.67,3.476172607880715
2301,3205.07,12.463142458098734
2302,3206.56,4.505786272805952
2303,3207.1,12.269748349101006
2304,3208.55,3.4649400621563617
2305,3209.0,15.060033478407618
2306,3210.84,1.5555152614068657
2307,3211.04,13.135743690712118
2308,3212.59,3.8299116781143416
2309,3213.02,13.763770250367404
2310,3214.62,4.75107341327956
2311,3215.04,18.695042735045703
2312,3216.53,5.2136077810446615
2313,3217.07,12.460214518886415
2314,3218.65,5.826721773436665
2315,3219.32,11.155813204507835
2316,3220.71,2.480519037051188
2317,3221.01,13.602105263154673
2318,3222.7,3.672961428116325
2319,3223.16,11.618366606172962
2320,3224.59,3.8074934383185886
2321,3225.06,12.762931573464678
2322,3226.59,4.461005624680116
2323,3227.13,11.385560912890329
2324,3228.55,3.8637919972970214
2325,3229.02,13.168719203786164
2326,3230.65,2.7950892857135594
2327,3231.0,12.00099630996467
2328,3232.53,4.128211753584226
2329,3233.05,13.181447028422749
2330,3234.69,4.177112437489772
2331,3235.21,10.209051530994543
2332,3236.53,7.269814502529511
2333,3237.03,22.913792218896162
2334,3238.59,7.284327223960938
2335,3239.07,22.644474034620504
2336,3240.57,7.639184051920566
2337,3241.06,22.57824933687003
2338,3242.56,6.864027959808318
2339,3243.02,21.809443507588533
2340,3244.52,7.6907034958996014
2341,3245.04,21.238917145204354
2342,3246.53,8.29012231125684
2343,3247.1,21.230562956597282
2344,3248.54,5.622509817311263
2345,3249.22,11.147615803817718
2346,3250.57,4.36192464524518
2347,3251.11,13.32976042590888
2348,3252.69,16.171206543966335
2349,3254.56,8.10592720970376
2350,3255.2,15.127531806616151
2351,3256.66,4.375996725337865
2352,3257.14,12.699505138944149
2353,3258.59,3.6773542099379806
2354,3259.05,13.439934458461874
2355,3260.71,2.649628488273912
2356,3261.03,13.879039287416742
2357,3262.77,2.4566405023543556
2358,3263.08,12.080315806094912
2359,3264.6,5.615095367849815
2360,3265.28,2.7757228514298538
2361,3265.62,23.34093788063522
2362,3268.61,4.5595228153868135
2363,3269.2,12.115154394301387
2364,3270.67,4.196151676588395
2365,3271.2,11.124383975814812
2366,3272.63,4.000633553742571
2367,3273.14,11.746857231631505
2368,3274.63,4.910035633298304
2369,3275.24,4.424919093852596
2370,3275.79,9.931341503811282
2371,3277.01,13.443324153568932
2372,3278.68,2.9345324597983415
2373,3279.06,14.376473459427617
2374,3280.9,1.1455338958400896
2375,3281.05,11.198379160635234
2376,3282.52,4.052331923583271
2377,3283.05,11.657860141883102
2378,3284.58,3.6116838699740956
2379,3285.04,12.837829457365201
2380,3286.67,3.762112652515758
2381,3287.13,11.884901960782695
2382,3288.6,3.9207129686539646
2383,3289.1,13.67257438551319
2384,3290.8,2.944715056985924
2385,3291.18,11.043877958369253
2386,3292.64,2.764698263174366
2387,3293.0,12.080206886361537
2388,3294.57,4.014295447505107
2389,3295.08,12.206285527607122
2390,3296.59,4.3500226073846555
2391,3297.15,10.097939866369032
2392,3298.5,31.630022271726865
2393,3299.03,59.29569767441053
2394,3300.5,14.859905926621764
2395,3301.04,39.67912408759173
2396,3302.52,14.36584103512557
2397,3303.05,53.332844036697736
2398,3305.03,34.680940438866756
2399,3306.5,11.082553191494105
2400,3307.01,33.32483641535718
2401,3308.54,10.411843876177658
2402,3309.04,31.447156208277327
2403,3310.56,9.124218750005532
2404,3311.01,29.7225595984897
2405,3312.52,10.516704689484323
2406,3313.05,39.721604010024706
2407,3315.07,133.22270627062392
2408,3316.61,6.096972664219348
2409,3317.28,12.357102910840986
2410,3318.55,4.107615708273064
2411,3319.04,13.373882544863655
2412,3320.51,7.938494817485076
2413,3321.03,22.732059596844604
2414,3322.55,6.958184319116857
2415,3323.0,24.627463235296375
2416,3324.59,6.354811407541443
2417,3325.0,24.63985408116595
2418,3326.6,6.830125523014105
2419,3327.0,24.95287569573142
2420,3328.6,6.562912785778747
2421,3329.05,22.288850833709432
2422,3330.51,8.301947224749213
2423,3331.05,22.440157825515126
2424,3332.55,7.382753430718269
2425,3333.04,23.162471395881006
2426,3334.54,7.119306759099056
2427,3335.02,22.72877099911911
2428,3336.53,8.003842459173871
2429,3337.03,23.22553973357832
2430,3338.53,7.977648099023577
2431,3339.06,23.711149927223904
2432,3340.53,8.307918781721646
2433,3341.1,22.382016302016037
2434,3342.62,5.788100607116741
2435,3343.01,22.80951564508814
2436,3344.56,7.641059792339872
2437,3345.15,16.400405840139875
2438,3346.76,4.007234042551666
2439,3347.19,12.816954314721826
2440,3348.57,7.419057265289723
2441,3349.11,13.939210526313891
2442,3350.58,4.870299136719206
2443,3351.12,12.95459016393509
2444,3352.54,5.449400284609867
2445,3353.14,13.321041196966924
2446,3354.6,3.928251316506575
2447,3355.06,16.85042382589018
2448,3356.57,3.9451362984216694
2449,3357.09,11.271328842621369
2450,3358.53,50.016806722689076
2451,3360.53,11.478259518254404
2452,3361.02,36.625394190871816
2453,3362.5,15.544518743673548
2454,3363.03,43.24728728728095
2455,3364.52,13.795748792277191
2456,3365.01,45.214912461379484
2457,3366.53,12.912863849759761
2458,3367.0,42.68751423149804
2459,3368.54,13.155955056180273
2460,3369.02,40.45074074074716
2461,3370.51,13.938872970391596
2462,3371.01,41.68683663833153
2463,3372.52,13.313209549077316
2464,3373.03,37.43618398637184
2465,3374.51,12.860121633362294
2466,3375.01,39.398061041286866
2467,3376.5,13.971520572456079
2468,3377.03,38.116842105257966
2469,3378.5,12.860121633362294
2470,3379.0,37.67229729729729
2471,3380.5,12.575296108291033
2472,3381.0,38.64551020408669
2473,3382.53,11.903181818176517
2474,3383.02,36.3856591639924
2475,3384.53,13.22557377049091
2476,3385.07,35.09985330073482
2477,3386.51,11.81760736195771
2478,3387.02,34.55777089783325
2479,3388.5,9.001698113210132
2480,3389.07,31.915687629578443
2481,3390.57,8.845564074479736
2482,3391.07,25.96537056927654
2483,3392.56,8.641036965913965
2484,3393.1,21.07987616099208
2485,3394.5,8.890831353918374
2486,3395.06,25.057632241817224
2487,3396.57,8.042423038725316
2488,3397.06,24.833068592062062
2489,3398.53,9.341446977200384
2490,3399.1,24.08652068126903
2491,3400.59,7.404822845052707
2492,3401.02,22.453043478264114
2493,3402.53,7.963955288047615
2494,3403.07,22.367213997305164
2495,3404.54,9.896247995727055
2496,3405.11,20.607311827952984
2497,3406.7,3.9165691221000154
2498,3407.08,14.930720678287603
2499,3408.59,4.104942263280157
2500,3409.01,17.237548518895323
2501,3410.67,5.778199889561001
2502,3411.2,12.773144500997184
2503,3412.54,5.632351472792677
2504,3413.09,13.985170454544011
2505,3414.5,5.042625341841209
2506,3415.02,14.607862006357081
2507,3416.53,5.420869565217026
2508,3417.07,15.783344513655239
2509,3418.65,5.732871335107323
2510,3419.22,15.031639385545576
2511,3420.68,4.830869463325509
2512,3421.17,13.95112627986401
2513,3422.61,3.803128442389056
2514,3423.01,14.289116439835647
2515,3424.53,5.029449003514667
2516,3425.04,16.465949919596213
2517,3426.73,4.103822714682152
2518,3427.15,14.225829169639104
2519,3428.58,4.616023365536009
2520,3429.06,16.57915492957585
2521,3430.74,2.5839429928762785
2522,3431.0,16.06803418803232
2523,3432.72,4.843494085532302
2524,3433.22,12.735942159965429
2525,3434.54,5.044944812363935
2526,3435.07,13.638050941305195
2527,3436.5,5.083003003002826
2528,3437.02,20.514326040930378
2529,3438.62,6.547872044507393
2530,3439.04,22.1903464755098
2531,3440.63,5.553095552618353
2532,3441.0,22.24177307848951
2533,3442.57,6.217393872274947
2534,3443.04,22.23712488769148
2535,3444.5,9.282253521125856
2536,3445.06,27.560365853660056
2537,3446.71,7.4220177289961375
2538,3447.22,12.44476148016224
2539,3448.52,5.54143377885967
2540,3449.07,15.966999297258235
2541,3450.69,5.187584660237372
2542,3451.23,14.662508662508664
2543,3452.73,5.407057274524265
2544,3453.3,12.024050348392898
2545,3454.55,6.93363536397642
2546,3455.28,13.879079837614546
2547,3456.72,4.853649680216398
2548,3457.25,13.39321323837285
2549,3458.7,3.3283759966440645
2550,3459.06,16.518509757543026
2551,3460.51,8.034701986754184
2552,3461.07,19.75942874883384
2553,3462.75,4.753910552985239
2554,3463.25,12.507332457294586
2555,3464.57,5.90015868351434
2556,3465.09,13.260610719624852
2557,3466.51,16.32150053589784
2558,3467.04,47.72008968610623
2559,3468.53,20.892944983809876
2560,3469.0,62.0489020771603
2561,3470.51,30.34467120181406
2562,3471.01,80.4047619047619
2563,3472.51,24.889462365579856
2564,3473.02,70.15611111111197
2565,3474.5,24.97165467626968
2566,3475.01,69.74424657533226
2567,3476.5,24.60397830018083
2568,3477.0,98.7439711191443
2569,3479.01,66.67961165048544
2570,3480.51,20.063583815028903
2571,3481.01,60.670969609252445
2572,3482.52,20.248175182481752
2573,3483.02,59.956834532374096
2574,3484.52,19.006802721088434
2575,3485.02,66.3391913746713
2576,3486.78,26.090491803275416
2577,3487.36,33.156914600551445
2578,3488.59,8.111950464396593
2579,3489.07,23.47653543307176
2580,3490.51,7.752416014726184
2581,3491.01,25.225685809202496
2582,3492.6,7.672636625120138
2583,3493.08,23.860048053824066
2584,3494.57,6.63316270566475
2585,3495.0,23.81363636363916
2586,3496.55,7.137270693509266
2587,3497.02,22.54504007124134
2588,3498.51,8.288007262822864
2589,3499.05,22.914938552568334
2590,3500.54,7.427702996092053
2591,3501.04,22.599965532101187
2592,3502.57,7.513895015438906
2593,3503.07,22.45645466846785
2594,3504.54,7.9810440308667205
2595,3505.06,24.734918414917274
2596,3506.64,5.717288135598561
2597,3507.01,24.740210912424086
2598,3508.61,6.38317445626798
2599,3509.02,21.882036238136592
2600,3510.5,8.813506493505386
2601,3511.08,23.731946564889263
2602,3512.57,8.181299176574294
2603,3513.1,21.33033707865307
2604,3514.5,8.07979156798072
2605,3515.01,26.915395395389687
2606,3516.64,6.843927550052296
2607,3517.07,22.215056078959726
2608,3518.53,8.056989145819767
2609,3519.04,23.951127541589084
2610,3520.58,6.529843400451847
2611,3521.01,22.739279279275948
2612,3522.5,8.352660550458152
2613,3523.04,23.639164689135217
2614,3524.53,7.2628317008017
2615,3525.01,23.754854771780277
2616,3526.54,6.844351610096276
2617,3527.0,22.240796881767
2618,3528.5,8.099241877259375
2619,3529.03,23.249310027598895
2620,3530.53,7.712979890310786
2621,3531.03,23.372830188679533
2622,3532.51,9.400292104057026
2623,3533.12,22.8228338614794
2624,3534.61,7.84865603644283
2625,3535.12,21.223554376662477
2626,3536.53,11.214028826350138
2627,3537.06,21.9398040961751
2628,3538.51,7.21031630169982
2629,3539.02,21.384169278999373
2630,3540.57,5.969011857705238
2631,3541.0,21.83487263763638
2632,3542.53,7.254308532997058
2633,3543.03,24.02506499327545
2634,3544.61,5.67996736026241
2635,3545.01,21.64421052631262
2636,3546.5,33.138260432378075
2637,3548.5,8.591987381701959
2638,3549.12,50.63349081365318
2639,3552.51,22.14121911036905
2640,3553.0,88.28400871460971
2641,3554.51,24.111898734166477
2642,3555.0,68.62000000000897
2643,3556.53,19.560574712634967
2644,3557.02,59.32676217765985
2645,3558.51,19.435035663329433
2646,3559.0,54.812609819129364
2647,3560.51,16.903261117445247
2648,3561.03,47.58666666666725
2649,3562.51,16.013452914798208
2650,3563.01,47.993281075027994
2651,3564.51,16.0607424071991
2652,3565.01,47.72008968609166
2653,3566.5,19.12240802675295
2654,3567.1,29.66507702612794
2655,3568.53,6.927079227433977
2656,3569.03,21.95814858031769
2657,3570.63,5.976174779609787
2658,3571.07,20.499699248116887
2659,3572.6,5.922501954656081
2660,3573.03,20.32809968847377
2661,3574.51,7.345958083828691
2662,3575.06,20.04184971098613
2663,3576.53,6.530627038782168
2664,3577.03,19.935340022296543
2665,3578.53,7.115636942671861
2666,3579.04,23.44433379437868
2667,3580.55,6.918109415705006
2668,3581.07,21.040629921259594
2669,3582.59,6.428974061166445
2670,3583.06,21.49997587455046
2671,3584.59,7.072222713209539
2672,3585.06,27.14466251795553
2673,3586.76,4.275644339991413
2674,3587.07,20.458310412573923
2675,3588.55,6.290660660657983
2676,3589.02,25.426422018346468
2677,3590.95,0.7906607929568154
2678,3591.01,21.325373134327148
2679,3592.61,5.253181818180103
2680,3593.0,20.74579579579823
2681,3594.55,26.817536793184075
2682,3596.51,6.6733512889543185
2683,3597.0,20.257400219699264
2684,3598.54,8.286074728808792
2685,3599.13,19.23033831628463
2686,3600.52,7.042987551870618
2687,3601.01,22.290538097284497
2688,3602.52,8.17047329570396
2689,3603.07,21.11411995295611
2690,3604.6,7.420197418377549
2691,3605.15,21.225036202731992
2692,3606.66,4.522202380954316
2693,3607.0,21.154703061599683
2694,3608.6,6.135853567426709
2695,3609.06,22.771596638657837
2696,3610.63,6.0021905129201425
2697,3611.07,17.89228464419271
2698,3612.5,8.096528189912668
2699,3613.11,21.20925619834737
2700,3614.59,7.053221117061727
2701,3615.11,20.241078546304397
2702,3616.58,6.088982081589663
2703,3617.03,20.79727343144824
2704,3618.55,7.9592200557066155
2705,3619.06,21.724523281597275
2706,3620.5,7.320550458715102
2707,3621.04,20.503601532570013
2708,3622.55,6.756468797564688
2709,3623.05,19.326761800216907
2710,3624.52,7.066574606827524
2711,3625.04,20.360506329116586
2712,3626.57,6.446593738212239
2713,3627.05,19.366238532107452
2714,3628.52,7.2366838556126
2715,3629.04,21.606377708977334
2716,3630.62,6.490922858499926
2717,3631.03,21.75600160577698
2718,3632.58,6.416203740549651
2719,3633.04,21.385528455287645
2720,3634.55,7.8332880543340355
2721,3635.11,19.982072141209862
2722,3636.58,6.886887417218803
2723,3637.06,19.501200889551193
2724,3638.53,7.265374894692502
2725,3639.03,21.526234851647494
2726,3640.52,7.676657584014532
2727,3641.02,25.457714863501813
2728,3642.55,7.088333333330316
2729,3643.02,22.483516483516482
2730,3644.52,6.743151125402185
2731,3645.0,20.366375711577895
2732,3646.51,7.503445974134073
2733,3647.03,21.30435897435872
2734,3648.55,7.928038049936499
2735,3649.12,20.88387820513152
2736,3650.61,5.494080996885984
2737,3651.01,22.06841512469422
2738,3652.58,7.206126418155434
2739,3653.09,21.720070267893632
2740,3654.54,7.2082205107448765
2741,3655.05,20.399275070476698
2742,3656.5,6.972155926809865
2743,3657.0,22.221743846474237
2744,3658.54,7.641234665613924
2745,3659.09,20.922644628099697
2746,3660.55,6.741213338690492
2747,3661.03,22.153067105800957
2748,3662.58,7.202143420015509
2749,3663.1,19.76171360571303
2750,3664.52,6.760156739815174
2751,3665.01,22.087490938376895
2752,3666.58,6.896200548374461
2753,3667.08,19.755364086923862
2754,3668.54,6.765806198512485
2755,3669.03,20.901837144000147
2756,3670.52,6.979021922428594
2757,3671.0,21.964849471117304
2758,3672.55,8.943501716523272
2759,3673.1,21.386329113927758
2760,3674.57,6.40037221668306
2761,3675.09,19.890441286459314
2762,3676.58,7.8021771950727405
2763,3677.14,20.35335394127062
2764,3678.63,6.850219560875192
2765,3679.12,19.75854725546999
2766,3680.5,7.639151561896671
2767,3681.06,20.89051140834291
2768,3682.57,6.930438413361432
2769,3683.05,20.906375341396547
2770,3684.57,6.770444624090797
2771,3685.05,20.544804469270947
2772,3686.52,7.112474437627812
2773,3687.02,21.19448946515397
2774,3688.52,7.201943319841139
2775,3689.03,21.589885057467065
2776,3690.62,5.283866877972992
2777,3691.0,20.360345734685964
2778,3692.52,6.635572519087171
2779,3693.01,21.208805126271166
2780,3694.59,7.394559879104756
2781,3695.14,19.665757575758064
2782,3696.6,6.943846153849126
2783,3697.11,19.160782778863215
2784,3698.5,7.137690094533498
2785,3699.0,22.402453377537547
2786,3700.56,7.1739517625237585
2787,3701.02,22.853424036284807
2788,3702.51,6.955921696571126
2789,3703.0,21.085834994024573
2790,3704.51,7.54492221778968
2791,3705.05,22.300203045681567
2792,3706.58,6.7546595663750475
2793,3707.08,19.727023360968
2794,3708.55,6.770992366412213
2795,3709.05,20.388487958939187
2796,3710.52,7.0478554595474
2797,3711.03,21.02646921277904
2798,3712.56,7.667196819088023
2799,3713.11,20.39907189044945
2800,3714.62,6.349803921569129
2801,3715.08,20.249976762200095
2802,3716.56,5.856834264432757
2803,3717.0,21.69984216459831
2804,3718.62,5.099502637529724
2805,3719.0,19.626453488372093
2806,3720.5,7.778809698752837
2807,3721.09,21.19972382048257
2808,3722.65,4.69739130434644
2809,3723.02,19.517941933113065
2810,3724.5,9.420442655936636
2811,3725.17,17.26753862737958
2812,3726.5,7.110959752321733
2813,3727.02,20.661734458940657
2814,3728.54,7.31404155233518
2815,3729.07,20.643438121767065
2816,3730.55,6.863832752612778
2817,3731.09,20.515935265333432
2818,3732.62,5.0964526659455185
2819,3733.01,20.388156594447583
2820,3734.52,7.0621857515878945
2821,3735.05,21.418267987933547
2822,3736.5,7.812244897961768
2823,3737.05,19.966480446927374
2824,3738.55,6.3630217474219375
2825,3739.02,20.96065040650432
2826,3740.5,7.666253662623237
2827,3741.03,21.638031693077565
2828,3742.53,7.521607367098942
2829,3743.05,21.718622346812353
2830,3744.6,6.134163649532651
2831,3745.07,20.155884146338508
2832,3746.56,6.73927710843399
2833,3747.04,20.2889320388352
2834,3748.52,6.758276537410233
2835,3749.01,22.086274509802664
2836,3750.61,6.40484760522211
2837,3751.1,19.052043010755987
2838,3752.57,6.379191919189077
2839,3753.06,20.79878326996149
2840,3754.6,6.519971890375243
2841,3755.11,19.814104393541363
2842,3756.59,6.971702673010198
2843,3757.12,19.36503816794287
2844,3758.55,6.3415180545322976
2845,3759.03,19.61318385649957
2846,3760.5,7.555823768976624
2847,3761.07,19.558390187812165
2848,3762.51,7.387526881716658
2849,3763.08,20.058240740744218
2850,3764.55,7.137876106194209
2851,3765.09,20.567664291370008
2852,3766.57,6.550844594591946
2853,3767.02,21.21471191791911
2854,3768.55,5.779705378554757
2855,3769.01,18.92395904436564
2856,3770.52,7.158148833764789
2857,3771.06,20.404545454547847
2858,3772.61,5.816422706174015
2859,3773.06,20.020053866875344
2860,3774.53,7.254723926377005
2861,3775.04,21.41911205074367
2862,3776.51,7.273767479024915
2863,3777.03,21.45409961685725
2864,3778.61,6.633788630290826
2865,3779.1,19.261666666670585
2866,3780.53,6.821111111108072
2867,3781.02,21.007666795217396
2868,3782.56,8.284660651234523
2869,3783.16,18.68311178248174
2870,3784.55,6.9640849673171585
2871,3785.04,22.331272015654072
2872,3786.66,6.636981132075723
2873,3787.14,20.00029043969445
2874,3788.56,6.758726868988829
2875,3789.07,17.655822676893415
2876,3790.66,5.118844765345431
2877,3791.15,15.405917387127399
2878,3792.69,3.385525291829991
2879,3793.05,15.833487475914493
2880,3794.63,4.660880330122421
2881,3795.0,17.533723310911682
2882,3796.55,7.070426409899756
2883,3797.2,16.55409040793806
2884,3798.72,5.2030769230784175
2885,3799.29,13.369468636101892
2886,3800.81,3.4393369313789854
2887,3801.2,12.198099781356737
2888,3802.56,5.948602366150684
2889,3803.22,11.849592760183787
2890,3804.61,4.841844062035097
2891,3805.13,13.16549640817611
2892,3806.66,5.475747970625395
2893,3807.28,11.022126326776759
2894,3808.6,3.6785699438794475
2895,3809.0,14.685247720965963
2896,3810.64,4.295405589638568
2897,3811.16,13.312607392607557
2898,3812.64,4.965486725665359
2899,3813.19,15.708359788359981
2900,3814.67,3.4317604146658023
2901,3815.06,17.073333333332734
2902,3816.62,6.353756432248823
2903,3817.19,15.70280331144571
2904,3818.6,21.283992851674086
2905,3820.65,4.584257767546955
2906,3821.12,14.358041557201403
2907,3822.56,6.773316953316103
2908,3823.14,18.945982905985645
2909,3824.65,3.757926059511848
2910,3825.04,14.581118568232489
2911,3826.56,5.03852242743987
2912,3827.16,12.985722171115032
2913,3828.67,3.710990317647557
2914,3829.12,14.731285299554804
2915,3830.51,5.05466223698539
2916,3831.04,14.80640272043006
2917,3832.51,4.539605781865523
2918,3833.07,14.498352059921778
2919,3834.74,3.404920634921613
2920,3835.12,12.841707740367625
2921,3836.66,3.3884282460142545
2922,3837.08,13.280209801670825
2923,3838.72,3.1623007395260734
2924,3839.11,11.874980416731944
2925,3840.61,3.762112652515758
2926,3841.07,14.696083940954942
2927,3842.81,2.32378331900424
2928,3843.09,12.454072524405428
2929,3844.58,4.214199462622106
2930,3845.11,11.13972776195071
2931,3846.51,6.665365632778566
2932,3847.2,13.68393980848121
2933,3848.74,3.200907845823868
2934,3849.1,13.792348918868186
2935,3850.7,2.7527891629069723
2936,3851.03,12.761124280390574
2937,3852.58,7.172312886889018
2938,3853.23,11.548996960487756
2939,3854.55,5.0518096003208575
2940,3855.11,13.504900138419874
2941,3856.62,5.0138749717894875
2942,3857.14,13.554757834760593
2943,3858.57,4.786385918734126
2944,3859.16,13.1155973528401
2945,3860.73,4.387828865613196
2946,3861.25,12.202900322635573
2947,3862.73,4.063521513579351
2948,3863.25,12.59195046439557
2949,3864.85,1.331562932229406
2950,3865.01,12.953079947574626
2951,3866.61,4.293142662580715
2952,3867.13,11.33050813683058
2953,3868.52,6.219584161996178
2954,3869.25,11.148652763984547
2955,3870.62,4.704259028642962
2956,3871.08,19.861314878894802
2957,3872.65,8.692255892253634
2958,3873.35,10.866548223350929
2959,3874.52,6.308285565397689
2960,3875.12,12.516756756757232
2961,3876.56,4.438753541078629
2962,3877.05,13.0242738205345
2963,3878.56,6.246961795027783
2964,3879.25,13.045080374493669
2965,3880.8,4.298235919232864
2966,3881.31,10.588685284990575
2967,3882.62,5.765503403800389
2968,3883.3,11.558734323750244
2969,3884.61,4.381490867203917
2970,3885.15,13.233376688343279
2971,3886.77,3.9132237411300177
2972,3887.24,11.452016730315847
2973,3888.58,3.981296560469171
2974,3889.08,14.008418465859833
2975,3890.75,3.1770383220319474
2976,3891.15,11.429447035310536
2977,3892.55,4.0705376344087565
2978,3893.03,14.893924221921065
2979,3894.84,3.52334558823387
2980,3895.29,11.325674300255033
2981,3896.71,5.050680586227173
2982,3897.27,13.739999999999519
2983,3898.83,2.6383125599227166
2984,3899.16,11.690296521878796
2985,3900.62,3.940818268318279
2986,3901.07,13.753206944719324
2987,3902.6,4.653238321456686
2988,3903.12,14.013731128685173
2989,3904.77,2.5295851792204944
2990,3905.05,13.44185403537321
2991,3906.53,4.64309148264968
2992,3907.05,13.076806944706547
2993,3908.55,4.053581806694266
2994,3909.06,12.591757306696577
2995,3910.52,4.238751245433263
2996,3911.04,11.947360079249222
2997,3912.51,5.048305084744998
2998,3913.11,9.78456461961394
2999,3914.25,9.967138115905406
3000,3915.21,13.951637117198494
3001,3916.64,5.144859879390928
3002,3917.25,11.910416666665864
3003,3918.6,3.9217028670742358
3004,3919.07,14.457092511011535
3005,3920.79,3.5569304269934134
3006,3921.25,11.256095617531276
3007,3922.57,4.8991633671862775
3008,3923.16,11.133385826773921
3009,3924.59,4.127191726332864
3010,3925.05,13.935795026374493
3011,3926.65,4.302602154214245
3012,3927.17,11.851370558376084
3013,3928.61,4.3071096081163365
3014,3929.09,12.531612903225657
3015,3930.61,4.201802624073177
3016,3931.09,11.439084946407265
3017,3932.52,5.933413173651386
3018,3933.18,11.775346091936239
3019,3934.57,5.556114229921579
3020,3935.12,20.311333872272392
3021,3936.56,7.513037171354488
3022,3937.05,23.689652546403003
3023,3938.54,7.401955230699229
3024,3939.02,23.110092081034974
3025,3940.51,7.746957279860235
3026,3941.03,21.215576684580665
3027,3942.51,8.50252237591409
3028,3943.11,22.08388072986259
3029,3944.57,6.448760330575905
3030,3945.02,22.62331737048297
3031,3946.54,6.790129870130127
3032,3947.02,22.939592529713767
3033,3948.59,6.653321829160382
3034,3949.04,22.31390347163713
3035,3950.57,6.925284738038203
3036,3951.02,22.990164473686033
3037,3952.63,6.288612597777643
3038,3953.07,20.85398671096084
3039,3954.52,7.878365927860429
3040,3955.05,24.603643643640037
3041,3956.54,8.52715667311734
3042,3957.07,21.749529754470167
3043,3958.58,5.984180880606986
3044,3959.01,22.606955074871017
3045,3960.58,7.689567044979784
3046,3961.11,20.203910661607928
3047,3962.5,7.146150679291889
3048,3963.0,22.34016260162575
3049,3964.52,7.914908796107864
3050,3965.08,22.550210970466782
3051,3966.63,5.609539388723092
3052,3967.01,22.33261976693651
3053,3968.52,7.074822546976274
3054,3969.01,22.69569620253085
3055,3970.57,6.8315381373759365
3056,3971.04,21.55160118293225
3057,3972.52,7.434200988467615
3058,3973.04,21.96424010217114
3059,3974.54,7.47195354624611
3060,3975.06,23.120352422906944
3061,3976.6,7.178127589063794
3062,3977.1,22.057666378568754
3063,3978.59,6.073305439331596
3064,3979.01,21.114597233520094
3065,3980.5,8.513934216145877
3066,3981.08,21.143983228512056
3067,3982.54,6.765654885658552
3068,3983.01,22.417400937363123
3069,3984.54,8.372282084975094
3070,3985.1,20.717695473254928
3071,3986.55,8.441488878797447
3072,3987.1,21.98478616924924
3073,3988.53,7.496610169487806
3074,3989.08,19.10272536687631
3075,3990.58,7.343157894736585
3076,3991.1,22.115169746454665
3077,3992.6,7.163908241294876
3078,3993.09,21.42497011101676
3079,3994.55,6.921259842519685
3080,3995.05,21.4454383735676
3081,3996.52,7.040000000003014
3082,3997.03,22.26398637137963
3083,3998.55,8.205061780996218
3084,3999.11,20.972402464062856
3085,4000.58,6.480626468288554
3086,4001.05,21.34138801261779
3087,4002.59,6.522433820621482
3088,4003.06,21.00401486988751
3089,4004.64,5.781562500001002
3090,4005.06,20.5417649451035
3091,4006.51,8.574352373285823
3092,4007.12,21.93504587156343
3093,4008.59,6.2011273635393005
3094,4009.07,18.881919884515852
3095,4010.52,7.182421227197347
3096,4011.02,21.532742474919807
3097,4012.51,9.390774840468978
3098,4013.12,19.732104404572347
3099,4014.51,7.358116118554351
3100,4015.03,22.812716864816988
3101,4016.55,7.94729718711704
3102,4017.11,20.66691111996837
3103,4018.59,7.076735459659429
3104,4019.04,23.261439851373872
3105,4020.53,6.384285714285956
3106,4021.01,110.59483146065796
3107,4022.5,25.845996343691965
3108,4023.02,63.82297339593193
3109,4024.5,20.306475644707835
3110,4025.01,59.480114942520025
3111,4026.5,19.922187938297448
3112,4027.01,56.40322580645161
3113,4028.51,17.743073047858942
3114,4029.01,52.63919799497975
3115,4030.5,17.527950310559007
3116,4031.0,52.93440993789584
3117,4032.51,17.55094890510135
3118,4033.02,41.714285714285715
3119,4034.52,13.162444987774174
3120,4035.06,38.23035211268268
3121,4036.53,16.72310679611538
3122,4037.07,20.094748693202362
3123,4038.5,7.001037522033066
3124,4039.18,14.699367771784257
3125,4040.59,4.761747967480051
3126,4041.05,15.054531529229667
3127,4042.5,6.119877644661209
3128,4043.09,15.036663489034822
3129,4044.6,4.001996476808063
3130,4045.05,13.067422247660744
3131,4046.54,5.730552781126679
3132,4047.23,12.346238859180342
3133,4048.69,3.88957756114081
3134,4049.16,13.697986216171383
3135,4050.83,4.526087524493354
3136,4051.39,10.033809883632784
3137,4052.68,5.454733009710864
3138,4053.38,10.095124378107444
3139,4054.66,4.181260667764354
3140,4055.2,9.904009263281166
3141,4056.5,5.485674580195349
3142,4057.22,10.368222454777625
3143,4058.56,5.477444279346491
3144,4059.27,9.917601199401851
3145,4060.55,6.8648622207721335
3146,4061.4,9.601536978377363
3147,4062.69,2.368914785141608
3148,4063.0,13.042918628111483
3149,4064.59,5.848904016337375
3150,4065.38,8.876669101532853
3151,4066.54,4.3770293658669495
3152,4067.12,11.56656231186216
3153,4068.61,4.217613168723996
3154,4069.15,13.38069767441889
3155,4070.86,1.2356813104977593
3156,4071.02,13.520115058249758
3157,4072.8,2.839694252534809
3158,4073.17,12.490838855208267
3159,4074.83,1.9235998226688338
3160,4075.08,11.17703757859364
3161,4076.54,4.645050348568148
3162,4077.13,10.187800283833292
3163,4078.54,6.485690816495643
3164,4079.34,10.25838798651505
3165,4080.65,5.682640024220547
3166,4081.38,10.296986301369571
3167,4082.67,4.459899036252885
3168,4083.24,10.81141104294564
3169,4084.62,4.805929253230982
3170,4085.26,10.235697753572058
3171,4086.5,6.584118294792564
3172,4087.33,9.346095267458422
3173,4088.52,6.618362740422246
3174,4089.35,9.512293906810177
3175,4090.58,4.8969034960538655
3176,4091.19,11.07287300820947
3177,4092.57,3.877175792505407
3178,4093.08,12.534969325152662
3179,4094.68,4.19246486016658
3180,4095.23,10.006324549234861
3181,4096.57,6.364035791425544
3182,4097.38,8.854459212928614
3183,4098.6,5.749897959178444
3184,4099.32,11.426959311162578
3185,4100.71,4.315714664546278
3186,4101.3,9.17636761487826
3187,4102.5,7.918310940497293
3188,4103.16,17.783471074377935
3189,4104.61,6.03262379055653
3190,4105.3,10.76382276281464
3191,4106.59,4.296916780350799
3192,4107.11,11.735654983040188
3193,4108.57,4.0554916218797
3194,4109.08,15.044422890396062
3195,4110.78,4.133107278573238
3196,4111.32,12.30932120364104
3197,4112.79,2.983149905125844
3198,4113.18,10.885578002243303
3199,4114.63,5.180818958005709
3200,4115.25,10.78596436870557
3201,4116.62,4.471248073959638
3202,4117.16,11.942388151808428
3203,4118.68,4.127757918950559
3204,4119.17,12.207025948106276
3205,4120.6,3.876757940852599
3206,4121.09,12.252839506169028
3207,4122.61,4.0434853686447605
3208,4123.11,12.889286973246127
3209,4124.72,2.673790613717822
3210,4125.05,13.07300461156592
3211,4126.6,4.887206087900988
3212,4127.22,11.471190864600914
3213,4128.64,4.54473767885502
3214,4129.18,10.965075757576624
3215,4130.56,3.944406273332966
3216,4131.07,12.890320512825173
3217,4132.68,4.699999999993782
3218,4133.23,11.590506512305975
3219,4134.59,4.539231030964414
3220,4135.14,11.65040026908906
3221,4136.56,4.673416186718999
3222,4137.16,12.076897701355385
3223,4138.6,5.162049113672326
3224,4139.24,11.347291781582813
3225,4140.56,3.514919895135728
3226,4141.02,13.843323195130171
3227,4142.75,3.9594289598876298
3228,4143.23,10.298039215687716
3229,4144.53,4.761713688615407
3230,4145.1,12.199359880906817
3231,4146.51,4.3425271385127635
3232,4147.08,12.817560975611977
3233,4148.76,2.820238737001671
3234,4149.08,13.107274308572975
3235,4150.65,5.220016625106577
3236,4151.29,9.997507082154707
3237,4152.55,5.355695732837647
3238,4153.17,12.648431262824415
3239,4154.63,3.378093883353969
3240,4155.03,12.829558338826041
3241,4156.61,3.688874598071031
3242,4157.07,13.428822248285476
3243,4158.71,3.6133230531999776
3244,4159.17,11.426261058511681
3245,4160.62,4.997816142840259
3246,4161.27,10.032076069725083
3247,4162.53,4.600907979746589
3248,4163.08,11.742519476699501
3249,4164.61,4.181777255167253
3250,4165.12,12.377560975607462
3251,4166.69,5.678817733994916
3252,4167.34,9.767298444128901
3253,4168.5,4.558648559128796
3254,4169.06,12.441695447407426
3255,4170.63,4.654480542664873
3256,4171.18,12.872861144452216
3257,4172.61,3.3756291390751323
3258,4173.04,12.821666666664289
3259,4174.61,4.417525083611743
3260,4175.15,11.122670081641807
3261,4176.54,4.368769633507559
3262,4177.08,13.898400621115435
3263,4178.65,4.02436135208235
3264,4179.17,11.319032151146187
3265,4180.56,4.185742174346396
3266,4181.07,12.202900322639323
3267,4182.55,4.2289213516319135
3268,4183.1,12.744793683894105
3269,4184.75,4.673911478950808
3270,4185.3,10.44011087157319
3271,4186.63,2.874627121061713
3272,4187.01,13.362138284251543
3273,4188.68,2.6372351615338108
3274,4189.02,12.524125534103177
3275,4190.65,3.173208859607816
3276,4191.02,12.44883920894239
3277,4192.52,5.680588235292442
3278,4193.26,10.838736716057653
3279,4194.66,3.0570059880265186
3280,4195.05,13.760582800285214
3281,4196.68,3.078962834916983
3282,4197.05,14.611375789983583
3283,4198.5,5.485128205125404
3284,4199.07,13.708826815645248
3285,4200.5,5.142493869082574
3286,4201.09,13.091527987897127
3287,4202.59,3.5607534246599446
3288,4203.02,13.701825962909208
3289,4204.64,4.028233003407432
3290,4205.14,12.68539649845309
3291,4206.67,4.034656488549937
3292,4207.13,11.239530646906719
3293,4208.56,4.6481434840656926
3294,4209.09,14.084316388323135
3295,4210.73,3.8559210526378136
3296,4211.18,11.940239638579179
3297,4212.52,4.553872152826614
3298,4213.05,13.033330863284583
3299,4214.56,4.900585328767873
3300,4215.12,14.792782207305082
3301,4216.72,2.38995645863353
3302,4217.0,13.464376214539428
3303,4218.52,4.67495798319089
3304,4219.09,12.823468104224675
3305,4220.6,4.844794816412213
3306,4221.17,11.51017440793222
3307,4222.51,4.709253324238986
3308,4223.08,12.533417190778232
3309,4224.51,5.060752580751689
3310,4225.13,13.360563961482839
3311,4226.74,2.525088339224146
3312,4227.04,12.496234427090641
3313,4228.53,4.496681614355332
3314,4229.06,13.056810652808476
3315,4230.68,4.998752598748052
3316,4231.28,10.952025862068657
3317,4232.57,3.6196289097038106
3318,4233.0,15.391660179386477
3319,4234.87,3.69973052501362
3320,4235.34,10.307645650438655
3321,4236.63,4.17089491129101
3322,4237.1,12.30594859240578
3323,4238.57,3.876028787605455
3324,4239.02,12.978062856086689
3325,4240.53,23.603109540669337
3326,4241.02,53.227499999975635
3327,4242.53,15.007284079084288
3328,4243.03,44.18266804551567
3329,4244.51,14.332591894426173
3330,4245.03,13.33769743103122
3331,4245.51,41.586139359704696
3332,4247.02,41.92905660376054
3333,4248.54,13.20880526812214
3334,4249.02,42.06924812029375
3335,4250.55,12.597717492985092
3336,4251.01,41.7881060606121
3337,4252.52,14.72704091340872
3338,4253.05,39.90159924740798
3339,4254.5,14.332591894451241
3340,4255.02,40.740578898219994
3341,4256.51,13.267607573137674
3342,4257.03,37.65241852488339
3343,4258.51,13.37452649868462
3344,4259.03,38.06596003476456
3345,4260.51,12.956095890416503
3346,4261.02,37.54393162392055
3347,4262.5,14.11446988974715
3348,4263.06,34.16463223786739
3349,4264.51,10.73507163323304
3350,4265.0,32.25079889808089
3351,4266.52,10.544442887171195
3352,4267.01,32.47557422969657
3353,4268.52,13.866453900702556
3354,4269.05,34.40344880676429
3355,4270.53,8.03121289228425
3356,4271.08,21.114782608696736
3357,4272.5,8.571390728472444
3358,4273.07,20.702261286462864
3359,4274.55,7.038772802650264
3360,4275.04,22.76690893544517
3361,4276.59,7.12006739679548
3362,4277.08,21.054621048073837
3363,4278.5,7.2804438964272835
3364,4279.01,22.709594594587177
3365,4280.57,6.831538137382546
3366,4281.04,21.67725752508361
3367,4282.54,6.886887417225329
3368,4283.02,22.46732811139093
3369,4284.53,6.839898691434689
3370,4285.0,22.33261976694324
3371,4286.51,9.241962533447314
3372,4287.12,24.11153339604491
3373,4288.65,6.377986577182313
3374,4289.07,22.284765802648746
3375,4290.52,11.205624421821447
3376,4291.24,15.449781890286879
3377,4292.5,8.92700587084444
3378,4293.05,21.604612123774892
3379,4294.53,7.530733752626867
3380,4295.05,22.346695464366082
3381,4296.56,7.371723248818221
3382,4297.06,20.07980906920683
3383,4298.5,8.882754541609089
3384,4299.11,20.21626318009755
3385,4300.5,9.112716617833307
3386,4301.13,24.016190476193948
3387,4302.64,5.48494382021973
3388,4303.0,22.39981132075321
3389,4304.62,7.074822546969708
3390,4305.11,20.558457669741202
3391,4306.53,7.962151675494846
3392,4307.06,20.764568651266572
3393,4308.53,7.823831252700152
3394,4309.06,21.42497011101676
3395,4310.52,8.014128113875152
3396,4311.05,21.736466638690725
3397,4312.55,7.6142699020790685
3398,4313.07,20.868305084750013
3399,4314.5,8.382783725905785
3400,4315.07,21.276611842115134
3401,4316.56,7.214512987003209
3402,4317.07,20.085643602632008
3403,4318.54,7.451714770801152
3404,4319.05,21.31748031496013
3405,4320.59,7.4306212424814
3406,4321.12,21.351265551262877
3407,4322.57,6.677299955305003
3408,4323.01,22.778528793606537
3409,4324.58,7.381794453513538
3410,4325.1,19.817793707687194
3411,4326.52,7.440254129596014
3412,4327.03,22.33261976694324
3413,4328.54,7.059186295510168
3414,4329.02,22.494686825046998
3415,4330.54,7.028556832701689
3416,4331.02,21.66468085105744
3417,4332.5,9.21491203043156
3418,4333.08,23.8365354330669
3419,4334.61,6.3022807677866295
3420,4335.08,21.784999999999485
3421,4336.62,7.496921723834652
3422,4337.12,20.621077441078498
3423,4338.54,6.769275610802078
3424,4339.0,23.49453399369598
3425,4340.54,7.860346820815847
3426,4341.06,22.300203045681567
3427,4342.59,6.883428039118099
3428,4343.03,21.796124684077505
3429,4344.53,7.019872503194336
3430,4345.01,22.14650205761577
3431,4346.56,7.712582322350004
3432,4347.08,21.118361774751495
3433,4348.52,7.63853394418625
3434,4349.05,22.56453998279934
3435,4350.58,6.54885502830536
3436,4351.02,22.008697123509386
3437,4352.53,7.841818181817654
3438,4353.07,20.684420259527023
3439,4354.5,8.067037701970989
3440,4355.03,22.30454114606096
3441,4356.54,8.162667852378284
3442,4357.08,21.114782608696736
3443,4358.5,7.675906013542962
3444,4359.05,20.690459081830223
3445,4360.53,7.801818181827821
3446,4361.06,21.82278481012658
3447,4362.56,6.627256637162114
3448,4363.0,21.713151243371843
3449,4364.53,9.662576459683192
3450,4365.15,21.46479324144174
3451,4366.57,8.094065934065389
3452,4367.11,21.718462852269965
3453,4368.59,8.308696870617212
3454,4369.12,19.895000000001573
3455,4370.5,8.01429314830822
3456,4371.04,21.631252653934723
3457,4372.52,7.567547488384843
3458,4373.04,23.197390097173837
3459,4374.53,6.940292850994286
3460,4375.0,23.449228100606035
3461,4376.58,7.856202531645041
3462,4377.12,19.448878648237446
3463,4378.55,7.073557046982894
3464,4379.06,22.3291089108838
3465,4380.62,6.148085106384044
3466,4381.04,20.53488372093023
3467,4382.54,8.056047700173021
3468,4383.09,20.52331262940376
3469,4384.52,9.105209790204903
3470,4385.13,21.658475256357505
3471,4386.56,7.362025677599664
3472,4387.13,20.277780364759252
3473,4388.61,5.799696394690833
3474,4389.04,18.84784034212449
3475,4390.5,7.620342368047529
3476,4391.09,18.37387526278396
3477,4392.53,7.645405405410868
3478,4393.09,21.1787398531142
3479,4394.64,6.258394793920555
3480,4395.12,20.503955431758428
3481,4396.59,6.804559932945849
3482,4397.06,23.551264367808763
3483,4398.58,5.900007527293243
3484,4399.02,20.342239382236404
3485,4400.51,7.095591438224154
3486,4401.04,20.21675425039286
3487,4402.52,6.554872521237575
3488,4403.03,20.597119501751656
3489,4404.53,6.446816079686943
3490,4405.03,18.65227804542922
3491,4406.51,6.565263157891812
3492,4407.0,19.96866039101768
3493,4408.53,7.549063329546541
3494,4409.09,19.10418136020482
3495,4410.56,5.967781765973192
3496,4411.02,19.199577613516368
3497,4412.52,6.729474082482028
3498,4413.02,20.528204410216336
3499,4414.63,5.167103218650286
3500,4415.02,21.88710280373055
3501,4416.66,4.826557911910712
3502,4417.0,20.611951951951465
3503,4418.54,6.857286012525635
3504,4419.08,19.924747944225487
3505,4420.62,5.477427472915277
3506,4421.05,19.180643274854276
3507,4422.51,8.096528189906632
3508,4423.12,19.0899209202046
3509,4424.59,5.34839363241489
3510,4425.0,21.806107594932666
3511,4426.57,7.222926829271384
3512,4427.08,22.640703605983923
3513,4428.59,5.003836657170858
3514,4429.01,17.954096270321966
3515,4430.51,6.542118644070596
3516,4431.02,22.33909937887102
3517,4432.65,5.972650644378018
3518,4433.12,18.361039335977896
3519,4434.53,6.824823773323659
3520,4435.07,20.069671772437474
3521,4436.6,6.133764906300504
3522,4437.09,18.104820095041855
3523,4438.54,7.722924059621432
3524,4439.14,17.44034188033458
3525,4440.53,6.807160068846358
3526,4441.07,18.922437275986134
3527,4442.53,6.0748807524439075
3528,4443.02,18.78053475935245
3529,4444.54,5.830830524057616
3530,4445.04,17.89910256409994
3531,4446.53,6.410629722921482
3532,4447.07,16.933927227105077
3533,4448.5,6.152903225809085
3534,4449.01,18.76409669210848
3535,4450.58,6.504513567170932
3536,4451.11,17.080754716987173
3537,4452.55,6.377520661151225
3538,4453.07,17.969358442387488
3539,4454.57,6.0583606557462515
3540,4455.06,18.27738525729673
3541,4456.5,7.190925589839039
3542,4457.05,20.159288625410547
3543,4458.57,6.311228615863641
3544,4459.03,21.22668697639831
3545,4460.6,5.403459320945926
3546,4461.05,19.35140762463678
3547,4462.52,6.854146162314736
3548,4463.04,19.90999999999953
3549,4464.58,6.41693099897288
3550,4465.09,19.1902782433814
3551,4466.64,5.352612801679836
3552,4467.06,19.070721435959513
3553,4468.57,7.260374787051901
3554,4469.15,17.224519382296698
3555,4470.6,6.778299595135536
3556,4471.08,22.035717204743086
3557,4472.63,5.717768687248199
3558,4473.06,19.002639740353878
3559,4474.52,6.087638979725311
3560,4475.02,18.840359612721997
3561,4476.51,7.172875226042154
3562,4477.06,20.302476324087053
3563,4478.65,5.739229718663196
3564,4479.18,12.795372352536464
3565,4480.5,5.609439252333584
3566,4481.07,21.92155863619771
3567,4482.71,4.682445829621372
3568,4483.12,15.127351712616067
3569,4484.5,7.996003197442047
3570,4485.25,12.903097238895194
3571,4486.54,4.982935228204822
3572,4487.0,17.635313001601247
3573,4488.65,3.8279692951881406
3574,4489.04,15.96144927536378
3575,4490.63,5.808923884516356
3576,4491.18,15.192325830654584
3577,4492.6,4.535229759297948
3578,4493.05,16.627832623401538
3579,4494.67,4.499932764419906
3580,4495.1,17.7896327833962
3581,4496.77,4.2649335302721525
3582,4497.19,13.516805454104219
3583,4498.53,5.078635437889037
3584,4499.02,16.42697281603874
3585,4500.57,5.5508648368789455
3586,4501.1,14.950618066559471
3587,4502.51,6.519614389841026
3588,4503.17,13.91464759959293
3589,4504.51,7.2522056384760845
3590,4505.1,14.993075036778315
3591,4506.58,5.123485967501622
3592,4507.03,18.553710174724195
3593,4508.81,3.8429388373379174
3594,4509.25,13.199400333146055
3595,4510.78,2.643063533513579
3596,4511.06,15.699542652614834
3597,4512.81,5.100974299961002
3598,4513.39,12.44577091671495
3599,4514.81,4.108126520675697
3600,4515.32,10.218365937861378
3601,4516.58,5.597610172444433
3602,4517.25,13.244626967833266
3603,4518.85,3.280107526878737
3604,4519.25,11.550679675872924
3605,4520.67,5.914433173160948
3606,4521.37,10.934557916378672
3607,4522.69,4.167743526518247
3608,4523.1,16.259685204616616
3609,4524.64,3.2810124610582223
3610,4525.01,13.316825177239103
3611,4526.61,5.306215114456519
3612,4527.28,11.064542638185976
3613,4528.65,3.9730367835796203
3614,4529.13,11.687667078119487
3615,4530.52,6.1010807669923945
3616,4531.21,12.501837697188002
3617,4532.76,2.309666893267784
3618,4533.04,12.463142458098734
3619,4534.53,5.588534667618497
3620,4535.19,11.708188147394045
3621,4536.61,4.101105722601173
3622,4537.12,10.559854908919132
3623,4538.435,4.8975743162883925
3624,4539.05,10.801002413217002
3625,4540.3,5.85219794344123
3626,4541.03,14.19502102607621
3627,4542.76,3.5911160643195164
3628,4543.21,10.735309446253485
3629,4544.54,5.88551010185548
3630,4545.26,10.383511450383477
3631,4546.52,5.6916791298403435
3632,4547.21,13.042213438737782
3633,4548.85,2.5046517517896185
3634,4549.12,13.577586912063452
3635,4550.61,4.33661718586896
3636,4551.08,13.704282744280736
3637,4552.57,4.0733123237684525
3638,4553.07,13.62032128514253
3639,4554.58,4.03438210487934
3640,4555.05,13.396614094627704
3641,4556.54,5.564166858720367
3642,4557.11,13.611958762888957
3643,4558.58,4.140000000000327
3644,4559.04,14.290939809925744
3645,4560.58,5.45681503461626
3646,4561.19,11.986854078049799
3647,4562.58,4.164935883958796
3648,4563.03,13.888074735992948
3649,4564.56,6.489259868421385
3650,4565.27,10.220514533912462
3651,4566.52,5.198087386639955
3652,4567.16,13.343560952533458
3653,4568.84,1.4311537490519677
3654,4569.04,11.137651638832445
3655,4570.6,4.66432919954822
3656,4571.22,10.313826571200208
3657,4572.63,3.0594009458754643
3658,4573.05,10.952805830298303
3659,4574.56,5.998768541836133
3660,4575.36,11.45167035235678
3661,4576.85,1.2909210860143414
3662,4577.03,12.133681348561423
3663,4578.67,4.938580449605623
3664,4579.36,9.363646436668688
3665,4580.67,3.3456998702578766
3666,4581.11,10.879348336324998
3667,4582.57,3.898523489937703
3668,4583.1,13.131088097600848
3669,4584.84,2.005418151902163
3670,4585.11,8.632396251674697
3671,4586.285,8.025395065149738
3672,4587.36,9.310780505684098
3673,4588.68,5.11392326732387
3674,4589.33,11.1766650270545
3675,4590.71,3.232565429543662
3676,4591.13,11.717555625192407
3677,4592.61,4.172107023413157
3678,4593.12,13.121559401784197
3679,4594.72,2.7105275577273646
3680,4595.05,12.286139022708007
3681,4596.53,4.984951295717074
3682,4597.11,12.940518731990714
3683,4598.58,4.167012361538255
3684,4599.1,13.620772142311981
3685,4600.66,4.728446498403663
3686,4601.22,12.550340084060297
3687,4602.65,3.791912666372928
3688,4603.14,11.357885243349354
3689,4604.58,4.065432914738929
3690,4605.08,7.745614320586135
3691,4606.04,5.920527594585517
3692,4606.75,14.655812395309585
3693,4608.54,5.011235879275678
3694,4609.15,7.564059196621923
3695,4610.05,6.033359926354073
3696,4610.82,13.017384806973329
3697,4612.65,4.340476438883838
3698,4613.17,12.930935768828233
3699,4614.84,1.2558583525777647
3700,4615.0,13.959389312974867
3701,4616.82,2.171173617850261
3702,4617.09,12.847639751553656
3703,4618.72,2.810514635543646
3704,4619.04,13.511853184600014
3705,4620.63,4.158492462309706
3706,4621.12,12.317377049184685
3707,4622.56,4.616232102484595
3708,4623.09,13.623651615203368
3709,4624.7,4.192992125986524
3710,4625.17,14.860689655167564
3711,4626.73,2.535571284131309
3712,4627.01,14.640626287592864
3713,4628.61,3.7386895986965656
3714,4629.02,14.911915393647698
3715,4630.53,6.813101503764427
3716,4631.22,15.865066801108775
3717,4632.76,5.0795501730100385
3718,4633.3,11.708429071440948
3719,4634.58,4.848972418847834
3720,4635.06,16.284145658258502
3721,4636.54,4.41779497098646
3722,4637.04,13.75778103411982
3723,4638.53,4.546395272492989
3724,4639.01,17.455831951348387
3725,4640.61,4.365564424180377
3726,4641.06,15.096766017364303
3727,4642.59,4.624620372875326
3728,4643.02,16.990458715592876
3729,4644.63,5.672152528317582
3730,4645.15,15.909280910506379
3731,4646.67,4.042234143264589
3732,4647.01,17.91572519083927
3733,4648.55,4.40581883087942
3734,4649.01,13.762681189775947
3735,4650.5,6.48188512518241
3736,4651.2,13.102084585164354
3737,4652.54,6.703038660426988
3738,4653.2,16.28080463689283
3739,4654.5,5.717531006636424
3740,4655.01,17.809406677873984
3741,4656.79,2.0541222879726657
3742,4657.02,14.684607329835876
3743,4658.61,4.202593397907002
3744,4659.08,11.984112774303838
3745,4660.65,4.191194524182933
3746,4661.27,12.043263086328626
3747,4662.73,3.3338717910246256
3748,4663.16,10.994840773597025
3749,4664.6,4.392337506429033
3750,4665.13,12.621846106586283
3751,4666.74,3.8466073194882613
3752,4667.17,12.01217089266773
3753,4668.61,6.283941299793046
3754,4669.29,9.720680076630641
3755,4670.68,4.540180676771747
3756,4671.26,9.44806045340214
3757,4672.52,5.191096121411805
3758,4673.08,13.94106887902695
3759,4674.66,5.245014264140962
3760,4675.3,11.678580517462137
3761,4676.85,1.8384773060012563
3762,4677.09,11.381497005989996
3763,4678.56,17.882164271774847
3764,4680.68,3.3413686026421594
3765,4681.12,11.893812699336191
3766,4682.68,2.8874967611927107
3767,4683.06,11.146775225356487
3768,4684.52,4.681040416162209
3769,4685.04,13.572916411197685
3770,4686.53,5.305875773917826
3771,4687.12,13.170789315123848
3772,4688.58,19.448800755433776
3773,4690.81,1.9799078340976244
3774,4691.04,13.031299734750974
3775,4692.64,4.056159754218216
3776,4693.03,16.815304990760346
3777,4694.75,2.764990161357367
3778,4695.06,14.050935309428619
3779,4696.62,4.309010551467514
3780,4697.1,12.795372288446707
3781,4698.54,5.774213672993852
3782,4699.09,19.18008203444935
3783,4700.86,1.0668056762260687
3784,4701.0,12.50966855048398
3785,4702.6,4.847459860022372
3786,4703.13,14.90011391375399
3787,4704.77,3.1710208660527
3788,4705.1,14.767318356600724
3789,4706.73,3.875584239132535
3790,4707.2,12.945673171691654
3791,4708.65,5.528635875404156
3792,4709.24,11.642058993643396
3793,4710.56,6.007503607498144
3794,4711.16,12.324207374135014
3795,4712.58,5.174402950666025
3796,4713.11,16.38972269383659
3797,4714.59,4.490530993115074
3798,4715.06,14.295430044525977
3799,4716.51,4.854778121772693
3800,4717.04,14.546719515043119
3801,4718.52,4.822055622728383
3802,4719.0,15.592517985615512
3803,4720.56,4.790430622007634
3804,4721.01,17.24104208416199
3805,4722.69,4.658231707324605
3806,4723.14,15.197951318451647
3807,4724.61,5.327564326759406
3808,4725.13,15.983133684709452
3809,4726.73,4.619120347994565
3810,4727.19,13.043577235780564
3811,4728.52,5.847024050994392
3812,4729.04,19.894404015059905
3813,4730.72,5.103959060241927
3814,4731.24,12.356544549983706
3815,4732.52,4.529340348037232
3816,4733.02,14.242212968464305
3817,4734.61,5.852058432936863
3818,4735.16,13.876107441656004
3819,4736.62,2.8112872094611854
3820,4737.0,15.06041560335586
3821,4738.76,2.736489995413482
3822,4739.11,10.96824668553609
3823,4740.53,5.422761635386399
3824,4741.05,14.124030482637435
3825,4742.57,4.073492822968251
3826,4743.08,13.273043478262085
3827,4744.67,4.991609267375034
3828,4745.37,7.939916356881091
3829,4746.52,4.297310800877796
3830,4747.08,12.229674094283013
3831,4748.65,3.8232167832184194
3832,4749.16,10.79522935779902
3833,4750.54,7.874352308379097
3834,4751.36,9.205286343617917
3835,4752.56,4.566253219728307
3836,4753.07,14.03217391304591
3837,4754.54,6.056147283341867
3838,4755.17,13.62957388939116
3839,4756.58,4.295690796498311
3840,4757.04,14.895537899936944
3841,4758.63,4.1714892566050885
3842,4759.04,14.799253804614999
3843,4760.5,5.593231039019354
3844,4761.09,14.412461992282891
3845,4762.58,6.227582205027917
3846,4763.2,9.722003558234803
3847,4764.51,4.974271653541091
3848,4765.0,15.423529411761306
3849,4766.65,2.796725978653736
3850,4767.02,12.66415025194601
3851,4768.64,4.011926298155667
3852,4769.13,12.492419844748053
3853,4770.65,3.0724006116239884
3854,4771.0,16.030574152075488
3855,4772.68,3.9443307638382104
3856,4773.25,10.033329440615347
3857,4774.7,2.6074987810816297
3858,4775.07,10.983545347469843
3859,4776.5,5.987075962535965
3860,4777.07,18.989264465516477
3861,4778.63,3.030192726662421
3862,4779.0,13.389204847766573
3863,4780.74,5.0273674013078224
3864,4781.24,13.895332213963457
3865,4782.63,4.797804817484596
3866,4783.1,16.355201592826674
3867,4784.7,5.39717274815457
3868,4785.22,14.647422680407375
3869,4786.82,2.739903232053082
3870,4787.13,13.718481012655438
3871,4788.74,3.073622163281529
3872,4789.14,11.503887682727402
3873,4790.65,6.674031613689202
3874,4791.45,10.197614290042473
3875,4792.76,1.9619824534400492
3876,4793.01,11.507282204019162
3877,4794.5,4.765740788455533
3878,4795.16,11.466851504937328
3879,4796.77,5.039939939937119
3880,4797.42,8.646446164670031
3881,4798.57,4.700019295707215
3882,4799.24,8.94625000000155
