,BIT_DEPTH,RATE_OF_PENETRATION,HOOK_LOAD,DIFFERENTIAL_PRESSURE,WEIGHT_ON_BIT,DRILL_BIT_ID,DRILL_BIT_NAME,CPR,CPF,CPH,NEXT_DEPTH,NEXT_RATE,PREV_ID,DEPTH_INTERVAL,TIME_INTERVAL,cost
0,138.57,288.5,69.5,-55,0.14,1,Apollo,1000,4.0,2500,139.24,306.9,,0.6700000000000159,0.02541735701906418,1066.2233925476605
1,139.24,306.9,69.2,-43,0.12,1,Apollo,1000,4.0,2500,142.51,154.7,1.0,3.269999999999982,0.010654936461388015,39.71734115346996
2,142.51,154.7,69.3,10,0.48,1,Apollo,1000,4.0,2500,143.03,148.5,1.0,0.5200000000000102,0.003361344537815192,10.483361344538022
3,143.03,148.5,69.7,33,0.3,1,Apollo,1000,4.0,2500,144.51,151.6,1.0,1.4799999999999898,0.009966329966329898,30.835824915824702
4,144.51,151.6,68.9,63,0.2,1,Apollo,1000,4.0,2500,145.03,147.8,1.0,0.5200000000000102,0.0034300791556728908,10.655197889182269
5,145.03,147.8,69.2,73,0.52,1,Apollo,1000,4.0,2500,147.09,246.3,1.0,2.0600000000000023,0.013937753721244941,43.084384303112365
6,147.09,246.3,67.7,56,0.49,1,Apollo,1000,4.0,2500,148.54,248.6,1.0,1.4499999999999886,0.005887129516849324,20.517823792123266
7,148.54,248.6,69.6,76,0.43,1,Apollo,1000,4.0,2500,150.54,247.0,1.0,2.0,0.008045052292839904,28.11263073209976
8,150.54,247.0,69.4,71,0.38,1,Apollo,1000,4.0,2500,151.11,208.6,1.0,0.5700000000000216,0.002307692307692395,8.049230769231073
9,151.11,208.6,62.2,233,7.15,1,Apollo,1000,4.0,2500,152.58,293.4,1.0,1.4699999999999989,0.007046979865771807,23.497449664429514
10,152.58,293.4,57.4,334,10.06,1,Apollo,1000,4.0,2500,153.1,332.9,1.0,0.5199999999999818,0.0017723244717109128,6.510811179277209
11,153.1,332.9,58.0,443,11.87,1,Apollo,1000,4.0,2500,155.04,375.9,1.0,1.9399999999999977,0.005827575848603178,22.328939621507935
12,155.04,375.9,55.5,326,18.22,1,Apollo,1000,4.0,2500,158.63,433.2,1.0,3.5900000000000034,0.009550412343708443,38.236030859271125
13,158.63,433.2,58.7,501,7.51,1,Apollo,1000,4.0,2500,160.68,396.8,1.0,2.0500000000000114,0.004732225300092362,20.03056325023095
14,160.68,396.8,59.9,540,13.72,1,Apollo,1000,4.0,2500,161.06,396.3,1.0,0.37999999999999545,0.0009576612903225691,3.9141532258064045
15,161.06,396.3,48.0,452,16.48,1,Apollo,1000,4.0,2500,163.22,443.0,1.0,2.1599999999999966,0.005450416351249045,22.2660408781226
16,163.22,443.0,56.9,560,14.05,1,Apollo,1000,4.0,2500,164.55,429.4,1.0,1.3300000000000125,0.0030022573363431434,12.825643340857908
17,164.55,429.4,56.5,476,14.27,1,Apollo,1000,4.0,2500,166.5,376.2,1.0,1.9499999999999886,0.004541220307405656,19.153050768514092
18,166.5,376.2,60.5,534,12.7,1,Apollo,1000,4.0,2500,168.65,392.4,1.0,2.1500000000000057,0.005715045188729415,22.88761297182356
19,168.65,392.4,54.2,418,16.74,1,Apollo,1000,4.0,2500,183.08,356.4,1.0,14.430000000000007,0.03677370030581042,149.65425076452607
20,183.08,356.4,45.8,420,21.54,1,Apollo,1000,4.0,2500,211.02,342.7,1.0,27.939999999999998,0.07839506172839505,307.74765432098764
21,211.02,342.7,59.4,293,12.82,1,Apollo,1000,4.0,2500,212.59,404.4,1.0,1.5699999999999932,0.004581266413772959,17.733166034432372
22,212.59,404.4,57.2,394,16.85,1,Apollo,1000,4.0,2500,213.28,384.1,1.0,0.6899999999999977,0.001706231454005929,7.0255786350148135
23,213.28,384.1,65.4,387,12.84,1,Apollo,1000,4.0,2500,214.53,397.4,1.0,1.25,0.00325436084353033,13.135902108825826
24,214.53,397.4,59.0,372,16.73,1,Apollo,1000,4.0,2500,215.04,383.9,1.0,0.5099999999999909,0.0012833417211876974,5.248354302969207
25,215.04,383.9,60.6,418,15.63,1,Apollo,1000,4.0,2500,216.52,392.9,1.0,1.4800000000000182,0.0038551706173483155,15.557926543370861
26,216.52,392.9,60.3,503,18.32,1,Apollo,1000,4.0,2500,217.02,396.0,1.0,0.5,0.0012725884448969204,5.181471112242301
27,217.02,396.0,53.3,483,19.34,1,Apollo,1000,4.0,2500,218.52,447.8,1.0,1.5,0.003787878787878788,15.46969696969697
28,218.52,447.8,48.9,527,23.5,1,Apollo,1000,4.0,2500,219.06,389.2,1.0,0.539999999999992,0.0012058954890575972,5.174738722643961
29,219.06,389.2,52.5,527,24.0,1,Apollo,1000,4.0,2500,229.05,415.6,1.0,9.990000000000009,0.025668036998972275,104.13009249743072
30,229.05,415.6,53.5,610,20.84,1,Apollo,1000,4.0,2500,234.57,323.1,1.0,5.519999999999982,0.01328200192492777,55.28500481231935
31,234.57,323.1,53.1,532,18.49,1,Apollo,1000,4.0,2500,238.5,505.3,1.0,3.930000000000007,0.012163416898792965,46.12854224698244
32,238.5,505.3,55.1,527,17.76,1,Apollo,1000,4.0,2500,240.52,405.7,1.0,2.0200000000000102,0.003997625173164477,18.074062932911232
33,240.52,405.7,56.1,612,19.63,1,Apollo,1000,4.0,2500,246.63,627.9,1.0,6.109999999999985,0.015060389450332723,62.09097362583175
34,246.63,627.9,55.2,531,17.29,1,Apollo,1000,4.0,2500,250.73,472.7,1.0,4.099999999999994,0.006529702181876086,32.724255454690194
35,250.73,472.7,52.8,555,18.03,1,Apollo,1000,4.0,2500,292.55,421.4,1.0,41.82000000000002,0.0884704886820394,388.4562217050986
36,292.55,421.4,61.6,109,19.13,1,Apollo,1000,4.0,2500,293.01,500.4,1.0,0.45999999999997954,0.0010915994304698138,4.568998576174453
37,293.01,500.4,72.2,250,11.62,1,Apollo,1000,4.0,2500,294.72,434.9,1.0,1.7100000000000364,0.0034172661870504324,15.383165467626226
38,294.72,434.9,72.6,32,14.19,1,Apollo,1000,4.0,2500,295.02,489.4,1.0,0.2999999999999545,0.0006898137502873178,2.9245343757181126
39,295.02,489.4,58.5,474,35.52,1,Apollo,1000,4.0,2500,298.65,512.8,1.0,3.6299999999999955,0.00741724560686554,33.06311401716383
40,298.65,512.8,64.5,837,29.1,1,Apollo,1000,4.0,2500,299.37,531.2,1.0,0.7200000000000273,0.0014040561622465433,6.390140405616467
41,299.37,531.2,52.9,510,22.29,1,Apollo,1000,4.0,2500,300.51,420.0,1.0,1.1399999999999864,0.002146084337349372,9.925210843373375
42,300.51,420.0,60.2,671,15.54,1,Apollo,1000,4.0,2500,301.15,451.4,1.0,0.6399999999999864,0.0015238095238094913,6.369523809523674
43,301.15,451.4,49.9,529,29.4,1,Apollo,1000,4.0,2500,302.59,425.6,1.0,1.4399999999999977,0.0031900753212228575,13.735188303057136
44,302.59,425.6,45.9,513,27.75,1,Apollo,1000,4.0,2500,304.55,431.4,1.0,1.9600000000000364,0.004605263157894822,19.3531578947372
45,304.55,431.4,62.9,578,19.01,1,Apollo,1000,4.0,2500,305.14,493.1,1.0,0.589999999999975,0.0013676402410755099,5.779100602688675
46,305.14,493.1,57.8,649,18.89,1,Apollo,1000,4.0,2500,306.65,416.0,1.0,1.509999999999991,0.0030622591766375803,13.695647941593915
47,306.65,416.0,58.1,572,16.64,1,Apollo,1000,4.0,2500,308.62,442.5,1.0,1.9700000000000273,0.004735576923076989,19.71894230769258
48,308.62,442.5,51.3,558,28.48,1,Apollo,1000,4.0,2500,312.68,417.4,1.0,4.060000000000002,0.009175141242937859,39.17785310734466
49,312.68,417.4,51.3,572,31.56,1,Apollo,1000,4.0,2500,316.56,441.0,1.0,3.8799999999999955,0.009295639674173444,38.75909918543359
50,316.56,441.0,56.3,483,27.71,1,Apollo,1000,4.0,2500,317.14,409.2,1.0,0.5799999999999841,0.0013151927437641362,5.607981859410277
51,317.14,409.2,57.3,619,21.79,1,Apollo,1000,4.0,2500,318.8,520.4,1.0,1.660000000000025,0.004056695992179924,16.78173998044991
52,318.8,520.4,52.6,481,24.42,1,Apollo,1000,4.0,2500,319.03,525.4,1.0,0.22999999999996135,0.00044196771714058675,2.0249192928513122
53,319.03,525.4,57.4,576,22.93,1,Apollo,1000,4.0,2500,322.62,469.0,1.0,3.590000000000032,0.006832889227255485,31.44222306813884
54,322.62,469.0,51.4,606,20.27,1,Apollo,1000,4.0,2500,325.22,505.3,1.0,2.6000000000000227,0.0055437100213220104,24.259275053305117
55,325.22,505.3,52.3,600,24.04,1,Apollo,1000,4.0,2500,326.52,520.3,1.0,1.2999999999999545,0.0025727290718384217,11.631822679595873
56,326.52,520.3,53.1,660,28.0,1,Apollo,1000,4.0,2500,328.71,521.6,1.0,2.1899999999999977,0.004209110128771858,19.282775321929634
57,328.71,521.6,58.5,680,23.29,1,Apollo,1000,4.0,2500,336.66,580.9,1.0,7.9500000000000455,0.015241564417178,69.90391104294518
58,336.66,580.9,59.3,641,25.58,1,Apollo,1000,4.0,2500,340.81,501.1,1.0,4.149999999999977,0.007144086761921118,34.46021690480271
59,340.81,501.1,59.4,804,27.7,1,Apollo,1000,4.0,2500,346.56,584.2,1.0,5.75,0.011474755537816803,51.68688884454201
60,346.56,584.2,55.2,869,25.44,1,Apollo,1000,4.0,2500,347.16,521.7,1.0,0.6000000000000227,0.0010270455323519731,4.967613830880024
61,347.16,521.7,54.6,718,23.69,1,Apollo,1000,4.0,2500,353.15,480.2,1.0,5.989999999999952,0.011481694460417772,52.664236151044236
62,353.15,480.2,48.5,660,26.38,1,Apollo,1000,4.0,2500,358.5,492.4,1.0,5.350000000000023,0.011141191170345737,49.252977925864435
63,358.5,492.4,57.3,743,22.74,1,Apollo,1000,4.0,2500,362.5,517.3,1.0,4.0,0.008123476848090984,36.30869212022746
64,362.5,517.3,56.5,800,24.97,1,Apollo,1000,4.0,2500,363.42,548.1,1.0,0.9200000000000159,0.0017784651072878719,8.126162768219743
65,363.42,548.1,56.4,715,25.2,1,Apollo,1000,4.0,2500,364.59,501.7,1.0,1.169999999999959,0.0021346469622330944,10.016617405582572
66,364.59,501.7,52.7,760,28.71,1,Apollo,1000,4.0,2500,380.59,406.1,1.0,16.0,0.03189156866653379,143.7289216663345
67,380.59,406.1,70.2,423,18.95,1,Apollo,1000,4.0,2500,381.07,440.6,1.0,0.4800000000000182,0.0011819748830337801,4.874937207584523
68,381.07,440.6,67.6,301,15.84,1,Apollo,1000,4.0,2500,382.56,635.9,1.0,1.490000000000009,0.003381752156150724,14.414380390376847
69,382.56,635.9,59.6,628,23.67,1,Apollo,1000,4.0,2500,383.79,663.9,1.0,1.2300000000000182,0.001934266394087149,9.755665985217945
70,383.79,663.9,52.7,622,32.15,1,Apollo,1000,4.0,2500,384.77,704.3,1.0,0.9799999999999613,0.0014761259225786435,7.610314806446453
71,384.77,704.3,59.7,537,23.63,1,Apollo,1000,4.0,2500,391.18,660.0,1.0,6.410000000000025,0.009101235269061515,48.39308817265389
72,391.18,660.0,56.3,417,34.07,1,Apollo,1000,4.0,2500,392.76,665.9,1.0,1.579999999999984,0.0023939393939393697,12.30484848484836
73,392.76,665.9,58.0,429,23.52,1,Apollo,1000,4.0,2500,395.04,710.8,1.0,2.2800000000000296,0.0034239375281574255,17.679843820393682
74,395.04,710.8,55.7,537,18.24,1,Apollo,1000,4.0,2500,396.71,611.1,1.0,1.669999999999959,0.002349465391108553,12.553663477771218
75,396.71,611.1,65.0,569,21.5,1,Apollo,1000,4.0,2500,397.76,652.8,1.0,1.0500000000000114,0.0017182130584192624,8.4955326460482
76,397.76,652.8,65.1,568,27.88,1,Apollo,1000,4.0,2500,400.59,562.7,1.0,2.829999999999984,0.004335171568627427,22.157928921568505
77,400.59,562.7,65.3,352,15.86,1,Apollo,1000,4.0,2500,406.54,476.9,1.0,5.9500000000000455,0.010574018126888298,50.23504531722092
78,406.54,476.9,50.5,582,36.9,1,Apollo,1000,4.0,2500,408.69,691.1,1.0,2.1499999999999773,0.004508282658838283,19.870706647095616
79,408.69,691.1,53.5,669,27.63,1,Apollo,1000,4.0,2500,409.0,717.6,1.0,0.3100000000000023,0.00044856026624222583,2.361400665605574
80,409.0,717.6,53.5,666,26.31,1,Apollo,1000,4.0,2500,410.63,555.5,1.0,1.6299999999999955,0.00227146042363433,12.198651059085808
81,410.63,555.5,58.9,563,30.2,1,Apollo,1000,4.0,2500,412.75,469.1,1.0,2.1200000000000045,0.0038163816381638245,18.02095409540958
82,412.75,469.1,53.3,519,34.9,1,Apollo,1000,4.0,2500,417.76,420.0,1.0,5.009999999999991,0.010680025580899576,46.7400639522489
83,417.76,420.0,57.4,517,23.22,1,Apollo,1000,4.0,2500,422.57,775.7,1.0,4.810000000000002,0.011452380952380957,47.8709523809524
84,422.57,775.7,62.7,552,33.16,1,Apollo,1000,4.0,2500,425.15,753.3,1.0,2.579999999999984,0.0033260281036482965,18.635070259120678
85,425.15,753.3,52.1,602,35.98,1,Apollo,1000,4.0,2500,426.64,651.7,1.0,1.490000000000009,0.0019779636267091586,10.904909066772934
86,426.64,651.7,51.3,548,33.0,1,Apollo,1000,4.0,2500,428.3,844.1,1.0,1.660000000000025,0.002547184287248772,13.00796071812203
87,428.3,844.1,49.2,534,29.28,1,Apollo,1000,4.0,2500,429.34,481.9,1.0,1.0399999999999636,0.0012320815069304153,7.240203767325893
88,429.34,481.9,60.1,324,19.99,1,Apollo,1000,4.0,2500,430.73,526.9,1.0,1.3900000000000432,0.0028844158539116896,12.771039634779397
89,430.73,526.9,58.6,695,28.2,1,Apollo,1000,4.0,2500,431.32,609.3,1.0,0.589999999999975,0.0011197570696526381,5.159392674131496
90,431.32,609.3,58.6,624,26.48,1,Apollo,1000,4.0,2500,433.18,680.9,1.0,1.8600000000000136,0.0030526834071885993,15.071708517971553
91,433.18,680.9,53.5,643,24.6,1,Apollo,1000,4.0,2500,434.68,655.2,1.0,1.5,0.0022029666617711854,11.507416654427963
92,434.68,655.2,57.2,704,20.87,1,Apollo,1000,4.0,2500,438.5,533.4,1.0,3.819999999999993,0.00583028083028082,29.855702075702023
93,438.5,533.4,55.9,652,17.7,1,Apollo,1000,4.0,2500,439.03,587.3,1.0,0.5299999999999727,0.000993625796775352,4.604064491938271
94,439.03,587.3,61.4,575,19.58,1,Apollo,1000,4.0,2500,442.25,557.8,1.0,3.2200000000000273,0.005482717520858211,26.586793802145635
95,442.25,557.8,64.3,362,16.52,1,Apollo,1000,4.0,2500,443.18,693.2,1.0,0.9300000000000068,0.0016672642524202348,7.8881606310506145
96,443.18,693.2,57.6,806,22.91,1,Apollo,1000,4.0,2500,444.96,761.5,1.0,1.7799999999999727,0.0025678015002884775,13.539503750721085
97,444.96,761.5,64.6,607,20.21,1,Apollo,1000,4.0,2500,445.23,741.5,1.0,0.27000000000003865,0.00035456336178599956,1.9664084044651535
98,445.23,741.5,58.2,616,27.17,1,Apollo,1000,4.0,2500,447.1,585.2,1.0,1.8700000000000045,0.0025219150370869923,13.7847875927175
99,447.1,585.2,55.6,464,32.71,1,Apollo,1000,4.0,2500,457.14,605.4,1.0,10.039999999999964,0.017156527682843408,83.05131920710838
100,457.14,605.4,59.0,649,23.42,1,Apollo,1000,4.0,2500,458.6,520.9,1.0,1.4600000000000364,0.002411628675256089,11.86907168814037
101,458.6,520.9,71.1,407,11.82,1,Apollo,1000,4.0,2500,460.63,598.4,1.0,2.0299999999999727,0.003897101171050053,17.862752927625024
102,460.63,598.4,61.4,491,22.91,1,Apollo,1000,4.0,2500,467.12,585.7,1.0,6.490000000000009,0.010845588235294133,53.07397058823537
103,467.12,585.7,69.6,524,16.39,1,Apollo,1000,4.0,2500,468.5,451.8,1.0,1.3799999999999955,0.002356155028171411,11.410387570428508
104,468.5,451.8,65.2,556,23.15,1,Apollo,1000,4.0,2500,469.11,494.0,1.0,0.6100000000000136,0.0013501549358123364,5.815387339530895
105,469.11,494.0,68.5,651,24.2,1,Apollo,1000,4.0,2500,470.74,548.7,1.0,1.6299999999999955,0.0032995951417003956,14.768987854250971
106,470.74,548.7,60.1,750,28.2,1,Apollo,1000,4.0,2500,471.04,457.0,1.0,0.30000000000001137,0.0005467468562055975,2.5668671405140393
107,471.04,457.0,62.7,587,33.66,1,Apollo,1000,4.0,2500,472.54,498.7,1.0,1.5,0.0032822757111597373,14.205689277899344
108,472.54,498.7,57.4,734,34.29,1,Apollo,1000,4.0,2500,473.1,489.2,1.0,0.5600000000000023,0.0011229195909364393,5.047298977341107
109,473.1,489.2,71.2,424,21.79,1,Apollo,1000,4.0,2500,474.55,583.0,1.0,1.4499999999999886,0.002964022894521645,13.210057236304067
110,474.55,583.0,64.7,672,31.79,1,Apollo,1000,4.0,2500,475.22,514.0,1.0,0.6700000000000159,0.0011492281303602332,5.553070325900647
111,475.22,514.0,68.1,554,23.31,1,Apollo,1000,4.0,2500,476.66,641.5,1.0,1.4399999999999977,0.0028015564202334585,12.763891050583638
112,476.66,641.5,64.2,707,25.5,1,Apollo,1000,4.0,2500,478.54,705.3,1.0,1.8799999999999955,0.002930631332813711,14.846578332034259
113,478.54,705.3,58.9,755,31.59,1,Apollo,1000,4.0,2500,479.21,731.7,1.0,0.6699999999999591,0.0009499503757265832,5.054875939316294
114,479.21,731.7,61.3,824,25.15,1,Apollo,1000,4.0,2500,480.51,794.1,1.0,1.3000000000000114,0.0017766844335110174,9.64171108377759
115,480.51,794.1,63.4,473,23.76,1,Apollo,1000,4.0,2500,481.08,746.1,1.0,0.5699999999999932,0.0007177937287495192,4.07448432187377
116,481.08,746.1,60.7,847,33.84,1,Apollo,1000,4.0,2500,482.57,717.8,1.0,1.490000000000009,0.001997051333601406,10.952628334003553
117,482.57,717.8,63.7,665,26.42,1,Apollo,1000,4.0,2500,483.19,837.0,1.0,0.6200000000000045,0.0008637503482864372,4.639375870716111
118,483.19,837.0,66.2,709,21.98,1,Apollo,1000,4.0,2500,484.73,756.2,1.0,1.5400000000000205,0.0018399044205496063,10.759761051374097
119,484.73,756.2,67.8,608,35.7,1,Apollo,1000,4.0,2500,485.02,757.1,1.0,0.2899999999999636,0.0003834964295159529,2.118741073789737
120,485.02,757.1,67.8,966,23.48,1,Apollo,1000,4.0,2500,486.16,620.9,1.0,1.1400000000000432,0.0015057456082420329,8.324364020605255
121,486.16,620.9,64.2,570,25.48,1,Apollo,1000,4.0,2500,487.05,628.4,1.0,0.8899999999999864,0.0014334031244966764,7.143507811241637
122,487.05,628.4,78.1,617,17.04,1,Apollo,1000,4.0,2500,488.62,951.8,1.0,1.5699999999999932,0.0024984086569064183,12.526021642266018
123,488.62,951.8,80.2,345,11.05,1,Apollo,1000,4.0,2500,490.54,947.3,1.0,1.920000000000016,0.00201723051061149,12.723076276528788
124,490.54,947.3,62.8,573,29.8,1,Apollo,1000,4.0,2500,492.29,734.7,1.0,1.75,0.0018473556423519476,11.618389105879869
125,492.29,734.7,69.4,641,34.34,1,Apollo,1000,4.0,2500,493.06,927.1,1.0,0.7699999999999818,0.0010480468218320156,5.700117054579966
126,493.06,927.1,53.6,681,32.52,1,Apollo,1000,4.0,2500,494.78,809.2,1.0,1.7199999999999704,0.0018552475461114984,11.518118865278627
127,494.78,809.2,59.1,719,34.7,1,Apollo,1000,4.0,2500,496.27,632.2,1.0,1.490000000000009,0.001841324765200209,10.56331191300056
128,496.27,632.2,61.6,799,32.19,1,Apollo,1000,4.0,2500,497.42,633.9,1.0,1.150000000000034,0.001819044606137352,9.147611515343517
129,497.42,633.9,72.0,820,16.24,1,Apollo,1000,4.0,2500,497.77,646.2,1.0,0.3499999999999659,0.0005521375611294619,2.7803439028235184
130,497.77,646.2,72.0,547,15.63,1,Apollo,1000,4.0,2500,498.75,489.7,1.0,0.9800000000000182,0.0015165583410709038,7.711395852677333
131,498.75,489.7,57.8,524,29.17,1,Apollo,1000,4.0,2500,500.41,579.2,1.0,1.660000000000025,0.0033898305084746273,15.11457627118667
132,500.41,579.2,70.9,647,18.91,1,Apollo,1000,4.0,2500,500.75,658.7,1.0,0.339999999999975,0.0005870165745855921,2.8275414364638802
133,500.75,658.7,63.7,710,29.69,1,Apollo,1000,4.0,2500,502.71,557.1,1.0,1.9599999999999795,0.002975557917109427,15.278894792773485
134,502.71,557.1,57.8,655,29.38,1,Apollo,1000,4.0,2500,503.3,669.2,1.0,0.5900000000000318,0.0010590558248070937,5.007639562017861
135,503.3,669.2,65.8,968,29.38,1,Apollo,1000,4.0,2500,504.08,552.8,1.0,0.7799999999999727,0.0011655708308427565,6.033927077106782
136,504.08,552.8,68.9,598,17.73,1,Apollo,1000,4.0,2500,504.79,685.3,1.0,0.7100000000000364,0.001284370477568807,6.050926193922162
137,504.79,685.3,55.7,861,40.42,1,Apollo,1000,4.0,2500,506.59,597.7,1.0,1.7999999999999545,0.0026265868962497513,13.766467240624197
138,506.59,597.7,71.4,661,16.1,1,Apollo,1000,4.0,2500,509.09,546.0,1.0,2.5,0.004182700351346829,20.456750878367075
139,509.09,546.0,67.8,1013,39.56,1,Apollo,1000,4.0,2500,510.06,536.6,1.0,0.9700000000000273,0.0017765567765568265,8.321391941392175
140,510.06,536.6,58.7,672,31.02,1,Apollo,1000,4.0,2500,512.53,429.5,1.0,2.4699999999999704,0.00460305628028321,21.387640700707905
141,512.53,429.5,50.4,615,34.0,1,Apollo,1000,4.0,2500,514.51,660.2,1.0,1.9800000000000182,0.004610011641443581,19.445029103609023
142,514.51,660.2,58.4,636,28.52,1,Apollo,1000,4.0,2500,516.56,673.6,1.0,2.0499999999999545,0.003105119660708807,15.962799151771836
143,516.56,673.6,70.8,956,36.16,1,Apollo,1000,4.0,2500,518.61,546.0,1.0,2.050000000000068,0.003043349168646182,15.808372921615728
144,518.61,546.0,68.5,496,20.63,1,Apollo,1000,4.0,2500,520.62,612.9,1.0,2.009999999999991,0.003681318681318665,17.243296703296625
145,520.62,612.9,64.2,951,21.52,1,Apollo,1000,4.0,2500,521.21,559.9,1.0,0.5900000000000318,0.0009626366454560806,4.766591613640329
146,521.21,559.9,57.8,729,31.39,1,Apollo,1000,4.0,2500,522.97,655.3,1.0,1.759999999999991,0.003143418467583481,14.898546168958665
147,522.97,655.3,55.1,538,34.14,1,Apollo,1000,4.0,2500,523.2,696.1,1.0,0.2300000000000182,0.0003509842820082683,1.7974607050207436
148,523.2,696.1,69.1,852,22.31,1,Apollo,1000,4.0,2500,524.63,600.8,1.0,1.42999999999995,0.0020543025427380403,10.8557563568449
149,524.63,600.8,62.5,889,32.95,1,Apollo,1000,4.0,2500,525.11,632.2,1.0,0.4800000000000182,0.0007989347536618145,3.9173368841546092
150,525.11,632.2,63.4,807,23.07,1,Apollo,1000,4.0,2500,526.65,505.2,1.0,1.5399999999999636,0.002435937994305542,12.249844985763708
151,526.65,505.2,64.9,611,23.66,1,Apollo,1000,4.0,2500,527.13,565.1,1.0,0.4800000000000182,0.0009501187648456418,4.295296912114177
152,527.13,565.1,70.5,780,23.91,1,Apollo,1000,4.0,2500,528.61,572.4,1.0,1.4800000000000182,0.0026190054857547656,12.467513714386987
153,528.61,572.4,75.9,662,12.08,1,Apollo,1000,4.0,2500,530.52,622.7,1.0,1.9099999999999682,0.003336827393431111,15.98206848357765
154,530.52,622.7,64.4,567,19.02,1,Apollo,1000,4.0,2500,532.2,613.8,1.0,1.6800000000000637,0.002697928376425347,13.464820941063621
155,532.2,613.8,62.3,911,32.25,1,Apollo,1000,4.0,2500,532.82,618.2,1.0,0.6200000000000045,0.0010101010101010177,5.005252525252562
156,532.82,618.2,63.5,755,29.39,1,Apollo,1000,4.0,2500,534.73,596.0,1.0,1.9099999999999682,0.0030896150113231442,15.364037528307733
157,534.73,596.0,62.0,857,20.34,1,Apollo,1000,4.0,2500,535.33,606.7,1.0,0.6000000000000227,0.0010067114093960112,4.91677852349012
158,535.33,606.7,59.6,710,37.19,1,Apollo,1000,4.0,2500,536.7,849.8,1.0,1.3700000000000045,0.0022581176858414444,11.12529421460363
159,536.7,849.8,56.4,879,31.95,1,Apollo,1000,4.0,2500,538.23,550.9,1.0,1.5299999999999727,0.0018004236290891653,10.621059072722804
160,538.23,550.9,68.1,644,18.36,1,Apollo,1000,4.0,2500,538.75,551.2,1.0,0.5199999999999818,0.000943909965510949,4.4397749137773
161,538.75,551.2,65.1,590,21.39,1,Apollo,1000,4.0,2500,541.01,614.3,1.0,2.259999999999991,0.00410014513788097,19.290362844702386
162,541.01,614.3,70.9,800,19.71,1,Apollo,1000,4.0,2500,542.65,505.2,1.0,1.6399999999999864,0.002669705355689381,13.234263389223397
163,542.65,505.2,58.1,619,21.11,1,Apollo,1000,4.0,2500,543.1,527.2,1.0,0.4500000000000455,0.0008907363420428453,4.026840855107295
164,543.1,527.2,62.8,817,29.11,1,Apollo,1000,4.0,2500,544.53,434.7,1.0,1.42999999999995,0.0027124430955992977,12.501107738998044
165,544.53,434.7,59.8,492,25.79,1,Apollo,1000,4.0,2500,545.0,449.8,1.0,0.4700000000000273,0.0010812054290315787,4.5830135725790555
166,545.0,449.8,56.0,568,25.81,1,Apollo,1000,4.0,2500,546.52,518.4,1.0,1.5199999999999818,0.0033792796798576743,14.528199199644114
167,546.52,518.4,64.4,795,23.49,1,Apollo,1000,4.0,2500,547.17,487.3,1.0,0.6499999999999773,0.0012538580246913142,5.7346450617281945
168,547.17,487.3,67.5,439,14.41,1,Apollo,1000,4.0,2500,548.5,543.3,1.0,1.330000000000041,0.0027293248512210975,12.143312128052909
169,548.5,543.3,60.3,566,26.61,1,Apollo,1000,4.0,2500,549.0,525.2,1.0,0.5,0.0009203018590097553,4.300754647524388
170,549.0,525.2,96.7,104,0.45,1,Apollo,1000,4.0,2500,552.66,660.5,1.0,3.659999999999968,0.0069687738004569075,32.06193450114214
171,552.66,660.5,73.5,576,21.25,1,Apollo,1000,4.0,2500,554.71,440.8,1.0,2.050000000000068,0.0031037093111280366,15.959273277820365
172,554.71,440.8,64.6,384,29.11,1,Apollo,1000,4.0,2500,555.02,640.6,1.0,0.30999999999994543,0.0007032667876586783,2.9981669691464776
173,555.02,640.6,53.2,1111,36.16,1,Apollo,1000,4.0,2500,557.13,626.2,1.0,2.1100000000000136,0.0032937870746175676,16.674467686543974
174,557.13,626.2,70.6,977,29.59,1,Apollo,1000,4.0,2500,558.5,634.4,1.0,1.3700000000000045,0.002187799425103808,10.949498562759537
175,558.5,634.4,58.3,660,32.11,1,Apollo,1000,4.0,2500,559.19,606.8,1.0,0.6900000000000546,0.001087641866330477,5.47910466582641
176,559.19,606.8,68.0,775,26.16,1,Apollo,1000,4.0,2500,560.12,668.8,1.0,0.92999999999995,0.0015326301911666941,7.551575477916535
177,560.12,668.8,70.7,848,31.31,1,Apollo,1000,4.0,2500,560.81,629.6,1.0,0.6899999999999409,0.001031698564593213,5.3392464114827956
178,560.81,629.6,65.1,884,40.21,1,Apollo,1000,4.0,2500,563.2,676.2,1.0,2.3900000000001,0.003796060991105622,19.050152477764456
179,563.2,676.2,66.3,614,30.17,1,Apollo,1000,4.0,2500,564.61,560.7,1.0,1.4099999999999682,0.002085181898846448,10.852954747115993
180,564.61,560.7,64.2,905,28.81,1,Apollo,1000,4.0,2500,565.45,512.6,1.0,0.8400000000000318,0.0014981273408240267,7.105318352060194
181,565.45,512.6,69.0,985,36.42,1,Apollo,1000,4.0,2500,566.68,769.7,1.0,1.2299999999999045,0.002399531798673243,10.918829496682726
182,566.68,769.7,57.6,1025,38.06,1,Apollo,1000,4.0,2500,568.06,682.9,1.0,1.3799999999999955,0.0017929063271404381,10.002265817851077
183,568.06,682.9,62.0,920,35.51,1,Apollo,1000,4.0,2500,569.01,829.6,1.0,0.9500000000000455,0.0013911260799532076,7.277815199883201
184,569.01,829.6,61.0,1006,37.9,1,Apollo,1000,4.0,2500,572.61,488.9,1.0,3.6000000000000227,0.004339440694310538,25.248601735776436
185,572.61,488.9,69.2,962,26.02,1,Apollo,1000,4.0,2500,573.17,552.8,1.0,0.5599999999999454,0.0011454285129882296,5.103571282470355
186,573.17,552.8,59.8,674,35.46,1,Apollo,1000,4.0,2500,574.5,653.7,1.0,1.330000000000041,0.002405933429811941,11.334833574530016
187,574.5,653.7,72.8,863,31.65,1,Apollo,1000,4.0,2500,575.07,516.2,1.0,0.57000000000005,0.0008719596145021416,4.459899036255554
188,575.07,516.2,58.9,631,33.21,1,Apollo,1000,4.0,2500,576.28,804.7,1.0,1.2099999999999227,0.002344052692754596,10.70013173188618
189,576.28,804.7,70.8,1067,36.56,1,Apollo,1000,4.0,2500,578.73,730.7,1.0,2.4500000000000455,0.003044612899217156,17.411532248043073
190,578.73,730.7,67.7,851,44.16,1,Apollo,1000,4.0,2500,581.16,604.8,1.0,2.42999999999995,0.003325578212672711,18.033945531681578
191,581.16,604.8,64.5,826,30.45,1,Apollo,1000,4.0,2500,582.73,652.9,1.0,1.57000000000005,0.0025958994708995538,12.769748677249083
192,582.73,652.9,57.8,973,32.13,1,Apollo,1000,4.0,2500,583.05,652.9,1.0,0.31999999999993634,0.0004901209986214372,2.5053024965533384
193,583.05,652.9,51.7,886,32.13,1,Apollo,1000,4.0,2500,584.6,757.7,1.0,1.5500000000000682,0.0023740235870731634,12.135058967683182
194,584.6,757.7,69.2,842,23.91,1,Apollo,1000,4.0,2500,585.24,725.1,1.0,0.6399999999999864,0.0008446614755179971,4.6716536887949385
195,585.24,725.1,67.7,951,35.59,1,Apollo,1000,4.0,2500,586.11,690.8,1.0,0.8700000000000045,0.0011998345055854428,6.4795862639636255
196,586.11,690.8,58.2,633,29.46,1,Apollo,1000,4.0,2500,587.07,533.5,1.0,0.9600000000000364,0.0013896931094383852,7.314232773596109
197,587.07,533.5,78.2,652,18.66,1,Apollo,1000,4.0,2500,588.73,600.3,1.0,1.6599999999999682,0.003111527647610062,14.418819119025027
198,588.73,600.3,69.7,892,24.99,1,Apollo,1000,4.0,2500,589.0,582.8,1.0,0.2699999999999818,0.0004497751124437478,2.204437781109297
199,589.0,582.8,69.8,812,24.99,1,Apollo,1000,4.0,2500,590.75,666.6,1.0,1.75,0.0030027453671928623,14.506863417982157
200,590.75,666.6,63.4,652,30.95,1,Apollo,1000,4.0,2500,591.01,662.4,1.0,0.2599999999999909,0.0003900390039003764,2.0150975097509045
201,591.01,662.4,71.1,746,24.71,1,Apollo,1000,4.0,2500,592.5,638.5,1.0,1.490000000000009,0.0022493961352657143,11.58349033816432
202,592.5,638.5,77.7,994,23.59,1,Apollo,1000,4.0,2500,593.21,783.7,1.0,0.7100000000000364,0.0011119812059515058,5.619953014878909
203,593.21,783.7,63.6,661,30.55,1,Apollo,1000,4.0,2500,594.58,744.0,1.0,1.3700000000000045,0.001748117902258523,9.850294755646326
204,594.58,744.0,57.9,629,35.89,1,Apollo,1000,4.0,2500,595.24,825.6,1.0,0.6599999999999682,0.0008870967741935056,4.857741935483636
205,595.24,825.6,62.4,934,33.64,1,Apollo,1000,4.0,2500,596.16,765.7,1.0,0.9199999999999591,0.0011143410852712682,6.465852713178007
206,596.16,765.7,61.7,1054,39.42,1,Apollo,1000,4.0,2500,596.77,688.2,1.0,0.6100000000000136,0.0007966566540420707,4.4316416351052315
207,596.77,688.2,54.9,913,31.59,1,Apollo,1000,4.0,2500,597.75,509.9,1.0,0.9800000000000182,0.0014240046498111278,7.480011624527892
208,597.75,509.9,74.3,855,27.89,1,Apollo,1000,4.0,2500,599.0,744.8,1.0,1.25,0.002451461070798196,11.12865267699549
209,599.0,744.8,58.8,914,32.22,1,Apollo,1000,4.0,2500,600.65,577.5,1.0,1.6499999999999773,0.0022153598281417527,12.138399570354292
210,600.65,577.5,62.6,977,26.52,1,Apollo,1000,4.0,2500,602.65,584.6,1.0,2.0,0.003463203463203463,16.658008658008658
211,602.65,584.6,70.5,727,22.96,1,Apollo,1000,4.0,2500,604.51,618.2,1.0,1.8600000000000136,0.003181662675333585,15.394156688334018
212,604.51,618.2,60.7,790,29.11,1,Apollo,1000,4.0,2500,605.14,701.1,1.0,0.6299999999999955,0.001019087673891937,5.067719184729825
213,605.14,701.1,60.0,1075,33.3,1,Apollo,1000,4.0,2500,606.56,505.6,1.0,1.419999999999959,0.0020253886749393222,10.74347168734814
214,606.56,505.6,70.4,774,23.48,1,Apollo,1000,4.0,2500,610.79,498.4,1.0,4.230000000000018,0.008366297468354466,37.83574367088624
215,610.79,498.4,60.3,895,31.57,1,Apollo,1000,4.0,2500,611.23,517.8,1.0,0.44000000000005457,0.0008828250401285205,3.9670626003215195
216,611.23,517.8,77.8,640,14.85,1,Apollo,1000,4.0,2500,612.84,624.0,1.0,1.6100000000000136,0.00310930861336426,14.213271533410705
217,612.84,624.0,74.5,546,17.23,1,Apollo,1000,4.0,2500,614.16,475.7,1.0,1.3199999999999363,0.0021153846153845134,10.56846153846103
218,614.16,475.7,46.6,850,45.56,1,Apollo,1000,4.0,2500,615.01,578.3,1.0,0.8500000000000227,0.0017868404456590767,7.867101114147783
219,615.01,578.3,63.9,880,41.9,1,Apollo,1000,4.0,2500,616.55,674.6,1.0,1.5399999999999636,0.0026629776932387407,12.817444233096706
220,616.55,674.6,52.1,943,30.38,1,Apollo,1000,4.0,2500,617.12,728.6,1.0,0.57000000000005,0.0008449451526831456,4.392362881708064
221,617.12,728.6,66.7,1049,48.48,1,Apollo,1000,4.0,2500,618.06,665.7,1.0,0.9399999999999409,0.001290145484490723,6.985363711226571
222,618.06,665.7,62.5,1212,43.05,1,Apollo,1000,4.0,2500,618.76,696.8,1.0,0.7000000000000455,0.0010515247108307728,5.428811777077113
223,618.76,696.8,60.2,1216,30.92,1,Apollo,1000,4.0,2500,621.0,719.2,1.0,2.240000000000009,0.003214695752009198,16.99673938002303
224,621.0,719.2,57.2,1119,53.14,1,Apollo,1000,4.0,2500,622.85,485.7,1.0,1.8500000000000227,0.002572302558398252,13.83075639599572
225,622.85,485.7,52.8,821,35.23,1,Apollo,1000,4.0,2500,624.29,451.6,1.0,1.4399999999999409,0.0029647930821493536,13.171982705373146
226,624.29,451.6,64.3,814,24.86,1,Apollo,1000,4.0,2500,628.57,617.8,1.0,4.280000000000086,0.009477413640389917,40.81353410097513
227,628.57,617.8,37.8,833,47.89,1,Apollo,1000,4.0,2500,629.17,349.5,1.0,0.599999999999909,0.0009711880867593218,4.82797021689794
228,629.17,349.5,48.8,747,44.18,1,Apollo,1000,4.0,2500,634.76,662.7,1.0,5.590000000000032,0.01599427753934201,62.345693848355154
229,634.76,662.7,82.9,1148,40.11,1,Apollo,1000,4.0,2500,636.7,448.0,1.0,1.9400000000000546,0.0029274181379207098,15.078545344801991
230,636.7,448.0,76.1,700,24.95,1,Apollo,1000,4.0,2500,638.57,381.1,1.0,1.8700000000000045,0.004174107142857153,17.9152678571429
231,638.57,381.1,90.5,175,23.48,1,Apollo,1000,4.0,2500,640.51,594.6,1.0,1.9399999999999409,0.005090527420624352,20.486318551560643
232,640.51,594.6,59.4,1057,60.24,1,Apollo,1000,4.0,2500,642.26,721.6,1.0,1.75,0.0029431550622267067,14.357887655566767
233,642.26,721.6,71.9,1234,30.27,1,Apollo,1000,4.0,2500,643.05,594.4,1.0,0.7899999999999636,0.0010947893569844284,5.896973392460925
234,643.05,594.4,71.3,1138,45.22,1,Apollo,1000,4.0,2500,644.68,564.6,1.0,1.6299999999999955,0.002742261103633909,13.375652759084755
235,644.68,564.6,61.3,1227,43.69,1,Apollo,1000,4.0,2500,645.02,723.0,1.0,0.34000000000003183,0.0006021962451293514,2.865490612823506
236,645.02,723.0,61.3,1227,43.69,1,Apollo,1000,4.0,2500,646.28,762.6,1.0,1.259999999999991,0.0017427385892116057,9.396846473028978
237,646.28,762.6,42.0,921,59.18,1,Apollo,1000,4.0,2500,647.17,705.9,1.0,0.8899999999999864,0.0011670600576973332,6.477650144243278
238,647.17,705.9,66.8,848,52.44,1,Apollo,1000,4.0,2500,649.12,529.5,1.0,1.9500000000000455,0.002762430939226584,14.706077348066643
239,649.12,529.5,71.1,1322,38.67,1,Apollo,1000,4.0,2500,652.64,675.4,1.0,3.519999999999982,0.0066477809254012876,30.699452313503148
240,652.64,675.4,59.4,766,42.05,1,Apollo,1000,4.0,2500,657.05,584.6,1.0,4.409999999999968,0.006529464021320651,33.9636600533015
241,657.05,584.6,73.1,1095,57.32,1,Apollo,1000,4.0,2500,658.63,667.2,1.0,1.580000000000041,0.0027027027027027727,13.076756756757096
242,658.63,667.2,40.2,736,56.21,1,Apollo,1000,4.0,2500,659.16,511.5,1.0,0.5299999999999727,0.0007943645083932445,4.105911270983002
243,659.16,511.5,61.5,792,40.37,1,Apollo,1000,4.0,2500,660.62,697.7,1.0,1.4600000000000364,0.002854349951124216,12.975874877810686
244,660.62,697.7,52.6,948,47.97,1,Apollo,1000,4.0,2500,662.69,637.4,1.0,2.07000000000005,0.0029668912139888923,15.697228034972431
245,662.69,637.4,61.3,876,50.67,1,Apollo,1000,4.0,2500,663.21,664.9,1.0,0.5199999999999818,0.0008158142453717945,4.119535613429413
246,663.21,664.9,68.8,992,54.92,1,Apollo,1000,4.0,2500,667.08,681.6,1.0,3.8700000000000045,0.005820424123928417,30.03106030982106
247,667.08,681.6,66.6,1106,45.72,1,Apollo,1000,4.0,2500,668.23,674.0,1.0,1.1499999999999773,0.0016872065727699195,8.818016431924708
248,668.23,674.0,68.4,1054,26.24,1,Apollo,1000,4.0,2500,670.65,757.3,1.0,2.419999999999959,0.0035905044510385147,18.656261127596125
249,670.65,757.3,58.2,1160,40.19,1,Apollo,1000,4.0,2500,671.19,752.8,1.0,0.5400000000000773,0.0007130595536776407,3.942648884194411
250,671.19,752.8,71.9,1067,26.23,1,Apollo,1000,4.0,2500,672.76,889.7,1.0,1.5699999999999363,0.0020855472901168126,11.493868225291777
251,672.76,889.7,61.7,1107,40.76,1,Apollo,1000,4.0,2500,674.72,709.3,1.0,1.9600000000000364,0.002202989771833243,13.347474429583253
252,674.72,709.3,49.8,970,52.2,1,Apollo,1000,4.0,2500,676.36,635.7,1.0,1.6399999999999864,0.0023121387283236805,12.340346820809145
253,676.36,635.7,59.4,967,42.8,1,Apollo,1000,4.0,2500,681.11,641.1,1.0,4.75,0.007472078024225263,37.68019506056316
254,681.11,641.1,67.6,1051,42.79,1,Apollo,1000,4.0,2500,682.73,600.5,1.0,1.6200000000000045,0.002526906878802066,12.797267197005183
255,682.73,600.5,56.4,632,43.62,1,Apollo,1000,4.0,2500,683.02,616.1,1.0,0.2899999999999636,0.0004829308909241692,2.3673272273102777
256,683.02,616.1,56.4,985,56.29,1,Apollo,1000,4.0,2500,684.25,818.4,1.0,1.2300000000000182,0.001996429151111862,9.911072877779727
257,684.25,818.4,42.3,949,54.84,1,Apollo,1000,4.0,2500,685.06,529.8,1.0,0.8099999999999454,0.000989736070381165,5.714340175952694
258,685.06,529.8,69.3,1014,58.68,1,Apollo,1000,4.0,2500,686.57,606.7,1.0,1.5100000000001046,0.002850132125330511,13.165330313326695
259,686.57,606.7,46.2,908,55.91,1,Apollo,1000,4.0,2500,687.06,442.3,1.0,0.4899999999998954,0.0008076479314321664,3.979119828579998
260,687.06,442.3,64.2,766,41.86,1,Apollo,1000,4.0,2500,688.17,551.2,1.0,1.1100000000000136,0.0025096088627628616,10.714022156907209
261,688.17,551.2,55.6,1011,41.77,1,Apollo,1000,4.0,2500,689.0,528.8,1.0,0.8300000000000409,0.0015058055152395516,7.084513788099043
262,689.0,528.8,61.1,745,35.08,1,Apollo,1000,4.0,2500,690.27,684.3,1.0,1.2699999999999818,0.002401664145234459,11.084160363086074
263,690.27,684.3,60.5,1109,44.46,1,Apollo,1000,4.0,2500,692.26,834.6,1.0,1.990000000000009,0.0029080812509133555,15.230203127283424
264,692.26,834.6,59.9,1191,46.1,1,Apollo,1000,4.0,2500,694.67,662.5,1.0,2.409999999999968,0.002887610831536027,16.85902707883994
265,694.67,662.5,51.2,1227,49.0,1,Apollo,1000,4.0,2500,695.15,663.2,1.0,0.4800000000000182,0.0007245283018868199,3.7313207547171228
266,695.15,663.2,69.5,1020,55.8,1,Apollo,1000,4.0,2500,696.76,688.0,1.0,1.6100000000000136,0.0024276236429433256,12.509059107358368
267,696.76,688.0,52.1,1164,45.18,1,Apollo,1000,4.0,2500,698.72,510.1,1.0,1.9600000000000364,0.0028488372093023787,14.962093023256092
268,698.72,510.1,59.0,893,41.89,1,Apollo,1000,4.0,2500,700.13,772.7,1.0,1.4099999999999682,0.002764163889433382,12.550409723583329
269,700.13,772.7,67.5,957,46.02,1,Apollo,1000,4.0,2500,700.75,662.3,1.0,0.6200000000000045,0.0008023812605150828,4.485953151287726
270,700.75,662.3,59.1,1190,38.55,1,Apollo,1000,4.0,2500,702.74,729.2,1.0,1.990000000000009,0.003004680658311957,15.47170164577993
271,702.74,729.2,52.2,930,39.38,1,Apollo,1000,4.0,2500,703.11,823.1,1.0,0.37000000000000455,0.0005074053757542574,2.7485134393856616
272,703.11,823.1,49.8,1047,48.29,1,Apollo,1000,4.0,2500,704.31,570.5,1.0,1.1999999999999318,0.0014579030494471289,8.44475762361755
273,704.31,570.5,70.2,1124,27.22,1,Apollo,1000,4.0,2500,706.47,774.3,1.0,2.160000000000082,0.0037861524978090827,18.105381244523034
274,706.47,774.3,59.6,1105,50.18,1,Apollo,1000,4.0,2500,708.59,725.0,1.0,2.1200000000000045,0.002737956864264503,15.324892160661275
275,708.59,725.0,45.2,1165,46.33,1,Apollo,1000,4.0,2500,709.05,537.5,1.0,0.4599999999999227,0.000634482758620583,3.4262068965511485
276,709.05,537.5,49.8,1010,60.24,1,Apollo,1000,4.0,2500,710.18,510.0,1.0,1.1299999999999955,0.0021023255813953402,9.775813953488331
277,710.18,510.0,60.7,668,43.94,1,Apollo,1000,4.0,2500,711.79,716.5,1.0,1.6100000000000136,0.003156862745098066,14.332156862745219
278,711.79,716.5,53.2,1172,47.42,1,Apollo,1000,4.0,2500,714.53,598.0,1.0,2.740000000000009,0.003824145150034905,20.5203628750873
279,714.53,598.0,59.3,1090,45.74,1,Apollo,1000,4.0,2500,716.63,487.9,1.0,2.1000000000000227,0.003511705685618767,17.17926421404701
280,716.63,487.9,57.1,948,35.68,1,Apollo,1000,4.0,2500,718.13,720.1,1.0,1.5,0.003074400491904079,13.686001229760198
281,718.13,720.1,58.5,1046,47.65,1,Apollo,1000,4.0,2500,718.79,666.6,1.0,0.6599999999999682,0.0009165393695319652,4.931348423829785
282,718.79,666.6,53.0,954,39.51,1,Apollo,1000,4.0,2500,723.11,358.3,1.0,4.32000000000005,0.006480648064806555,33.48162016201659
283,723.11,358.3,57.7,1287,39.09,1,Apollo,1000,4.0,2500,724.27,651.0,1.0,1.1599999999999682,0.00323751046608978,12.733776165224322
284,724.27,651.0,103.0,115,1.34,1,Apollo,1000,4.0,2500,725.03,129.3,1.0,0.7599999999999909,0.0011674347158217987,5.95858678955446
285,725.03,129.3,73.9,511,30.24,1,Apollo,1000,4.0,2500,727.07,347.6,1.0,2.0400000000000773,0.015777262180975075,47.603155452437996
286,727.07,347.6,54.0,735,52.89,1,Apollo,1000,4.0,2500,728.14,403.2,1.0,1.0699999999999363,0.0030782508630608067,11.975627157651761
287,728.14,403.2,60.9,930,38.13,1,Apollo,1000,4.0,2500,728.92,480.8,1.0,0.7799999999999727,0.001934523809523742,7.956309523809246
288,728.92,480.8,61.6,920,55.82,1,Apollo,1000,4.0,2500,731.19,521.0,1.0,2.2700000000000955,0.004721297836938635,20.88324459234697
289,731.19,521.0,60.5,713,37.4,1,Apollo,1000,4.0,2500,732.6,598.4,1.0,1.4099999999999682,0.002706333973128538,12.405834932821218
290,732.6,598.4,60.3,1024,50.44,1,Apollo,1000,4.0,2500,733.14,648.3,1.0,0.5399999999999636,0.0009024064171122386,4.416016042780451
291,733.14,648.3,59.9,933,38.84,1,Apollo,1000,4.0,2500,735.2,679.4,1.0,2.060000000000059,0.003177541261761622,16.18385315440429
292,735.2,679.4,58.2,1028,46.42,1,Apollo,1000,4.0,2500,736.74,685.6,1.0,1.5399999999999636,0.002266705916985522,11.82676479246366
293,736.74,685.6,56.2,1050,46.3,1,Apollo,1000,4.0,2500,737.03,690.3,1.0,0.2899999999999636,0.0004229871645273682,2.217467911318275
294,737.03,690.3,59.8,1103,46.3,1,Apollo,1000,4.0,2500,738.51,654.5,1.0,1.4800000000000182,0.002143995364334374,11.279988410836008
295,738.51,654.5,57.8,1111,38.13,1,Apollo,1000,4.0,2500,739.0,655.5,1.0,0.4900000000000091,0.0007486631016042919,3.831657754010766
296,739.0,655.5,55.2,920,49.5,1,Apollo,1000,4.0,2500,740.71,682.6,1.0,1.7100000000000364,0.0026086956521739683,13.361739130435065
297,740.71,682.6,53.4,994,49.97,1,Apollo,1000,4.0,2500,742.71,535.8,1.0,2.0,0.002929973630237328,15.324934075593319
298,742.71,535.8,63.0,874,47.72,1,Apollo,1000,4.0,2500,743.15,491.0,1.0,0.4399999999999409,0.0008212019410226595,3.813004852556412
299,743.15,491.0,48.9,896,52.54,1,Apollo,1000,4.0,2500,745.1,659.5,1.0,1.9500000000000455,0.003971486761710887,17.728716904277398
300,745.1,659.5,68.6,971,52.77,1,Apollo,1000,4.0,2500,746.67,547.0,1.0,1.5699999999999363,0.002380591357088607,12.231478392721263
301,746.67,547.0,59.6,970,56.46,1,Apollo,1000,4.0,2500,747.19,508.6,1.0,0.5200000000000955,0.0009506398537478895,4.4565996343701055
302,747.19,508.6,59.1,1113,55.47,1,Apollo,1000,4.0,2500,748.25,644.8,1.0,1.0599999999999454,0.002084152575697887,9.450381439244499
303,748.25,644.8,55.8,1109,49.21,1,Apollo,1000,4.0,2500,751.04,515.7,1.0,2.7899999999999636,0.004326923076923021,21.977307692307406
304,751.04,515.7,63.5,921,53.37,1,Apollo,1000,4.0,2500,752.93,547.5,1.0,1.8899999999999864,0.003664921465968559,16.72230366492134
305,752.93,547.5,58.9,1035,45.47,1,Apollo,1000,4.0,2500,754.51,578.0,1.0,1.580000000000041,0.002885844748858522,13.534611872146469
306,754.51,578.0,58.2,955,44.31,1,Apollo,1000,4.0,2500,755.13,524.9,1.0,0.6200000000000045,0.0010726643598615996,5.1616608996540165
307,755.13,524.9,58.5,960,43.11,1,Apollo,1000,4.0,2500,756.72,589.8,1.0,1.5900000000000318,0.003029148409220865,13.93287102305229
308,756.72,589.8,56.8,1037,43.28,1,Apollo,1000,4.0,2500,757.01,609.3,1.0,0.2899999999999636,0.0004916920990165541,2.38923024754124
309,757.01,609.3,57.3,1005,43.28,1,Apollo,1000,4.0,2500,758.74,621.6,1.0,1.7300000000000182,0.0028393238142130615,14.018309535532726
310,758.74,621.6,56.2,1054,49.69,1,Apollo,1000,4.0,2500,759.02,617.2,1.0,0.2799999999999727,0.00045045045045040655,2.2461261261259073
311,759.02,617.2,56.2,1054,43.68,1,Apollo,1000,4.0,2500,762.6,607.6,1.0,3.580000000000041,0.005800388852884059,28.820972132210308
312,762.6,607.6,55.1,935,59.3,1,Apollo,1000,4.0,2500,764.61,385.1,1.0,2.009999999999991,0.0033080974325213806,16.310243581303414
313,764.61,385.1,46.9,948,55.25,1,Apollo,1000,4.0,2500,766.63,370.8,1.0,2.019999999999982,0.0052453908075823985,21.193477018955925
314,766.63,370.8,55.8,843,48.66,1,Apollo,1000,4.0,2500,768.51,489.4,1.0,1.8799999999999955,0.005070118662351659,20.19529665587913
315,768.51,489.4,54.0,896,47.39,1,Apollo,1000,4.0,2500,769.06,425.7,1.0,0.5499999999999545,0.001123825091949233,5.009562729872901
316,769.06,425.7,48.4,992,52.44,1,Apollo,1000,4.0,2500,770.65,544.5,1.0,1.5900000000000318,0.0037350246652572985,15.697561663143373
317,770.65,544.5,60.7,958,39.96,1,Apollo,1000,4.0,2500,772.73,536.3,1.0,2.080000000000041,0.0038200183654729858,17.870045913682628
318,772.73,536.3,57.0,805,44.32,1,Apollo,1000,4.0,2500,773.17,560.8,1.0,0.4399999999999409,0.0008204363229534606,3.8110908073834153
319,773.17,560.8,55.1,995,41.69,1,Apollo,1000,4.0,2500,774.7,550.9,1.0,1.5300000000000864,0.0027282453637662027,12.940613409415853
320,774.7,550.9,59.6,916,35.74,1,Apollo,1000,4.0,2500,775.03,542.9,1.0,0.32999999999992724,0.0005990197858049142,2.8175494645119947
321,775.03,542.9,59.6,842,35.74,1,Apollo,1000,4.0,2500,776.61,482.7,1.0,1.580000000000041,0.0029102965555351645,13.595741388838075
322,776.61,482.7,60.5,1088,40.67,1,Apollo,1000,4.0,2500,778.83,381.3,1.0,2.2200000000000273,0.00459912989434437,20.377824735861033
323,778.83,381.3,45.1,930,51.85,1,Apollo,1000,4.0,2500,780.67,453.9,1.0,1.8399999999999181,0.00482559664306299,19.423991607657147
324,780.67,453.9,43.8,975,48.81,1,Apollo,1000,4.0,2500,782.71,364.8,1.0,2.0400000000000773,0.0044943820224720805,19.39595505618051
325,782.71,364.8,42.5,840,52.68,1,Apollo,1000,4.0,2500,784.7,400.7,1.0,1.990000000000009,0.005455043859649148,21.597609649122905
326,784.7,400.7,57.0,994,40.69,1,Apollo,1000,4.0,2500,785.19,488.0,1.0,0.4900000000000091,0.0012228599950087574,5.01714998752193
327,785.19,488.0,62.9,929,38.59,1,Apollo,1000,4.0,2500,786.27,588.1,1.0,1.0799999999999272,0.0022131147540982114,9.852786885245237
328,786.27,588.1,58.9,1031,41.76,1,Apollo,1000,4.0,2500,788.82,694.3,1.0,2.550000000000068,0.004335997279374372,21.039993198436203
329,788.82,694.3,53.6,996,47.21,1,Apollo,1000,4.0,2500,790.3,679.8,1.0,1.4799999999999045,0.002131643381823282,11.249108454557824
330,790.3,679.8,49.4,1103,47.15,1,Apollo,1000,4.0,2500,792.97,727.1,1.0,2.6700000000000728,0.003927625772286074,20.499064430715478
331,792.97,727.1,52.5,1013,47.06,1,Apollo,1000,4.0,2500,794.66,662.5,1.0,1.6899999999999409,0.0023243020217300794,12.570755054324962
332,794.66,662.5,39.7,872,56.17,1,Apollo,1000,4.0,2500,799.06,567.7,1.0,4.399999999999977,0.006641509433962229,34.203773584905484
333,799.06,567.7,55.6,1108,49.1,1,Apollo,1000,4.0,2500,804.5,658.1,1.0,5.440000000000055,0.00958252598203286,45.71631495508237
334,804.5,658.1,55.1,1049,51.76,1,Apollo,1000,4.0,2500,807.1,566.5,1.0,2.6000000000000227,0.003950767360583532,20.27691840145892
335,807.1,566.5,57.4,919,41.58,1,Apollo,1000,4.0,2500,811.11,470.8,1.0,4.009999999999991,0.007078552515445704,33.736381288614226
336,811.11,470.8,53.3,1087,52.98,1,Apollo,1000,4.0,2500,819.12,445.3,1.0,8.009999999999991,0.017013593882752743,74.57398470688182
337,819.12,445.3,67.9,1171,50.85,1,Apollo,1000,4.0,2500,822.97,641.6,1.0,3.8500000000000227,0.00864585672580288,37.014641814507286
338,822.97,641.6,72.4,755,33.57,1,Apollo,1000,4.0,2500,824.58,549.4,1.0,1.6100000000000136,0.002509351620947652,12.713379052369184
339,824.58,549.4,59.3,904,46.04,1,Apollo,1000,4.0,2500,825.14,567.3,1.0,0.5599999999999454,0.0010192937750272031,4.788234437567789
340,825.14,567.3,56.3,939,46.17,1,Apollo,1000,4.0,2500,826.64,778.5,1.0,1.5,0.0026441036488630354,12.610259122157588
341,826.64,778.5,59.6,936,45.87,1,Apollo,1000,4.0,2500,828.69,732.0,1.0,2.050000000000068,0.002633269107257634,14.783172768144357
342,828.69,732.0,57.2,1191,41.59,1,Apollo,1000,4.0,2500,830.87,685.6,1.0,2.17999999999995,0.002978142076502664,16.16535519125646
343,830.87,685.6,64.6,886,45.04,1,Apollo,1000,4.0,2500,831.13,753.4,1.0,0.2599999999999909,0.00037922987164526093,1.988074679113116
344,831.13,753.4,58.6,1210,48.41,1,Apollo,1000,4.0,2500,833.15,423.7,1.0,2.019999999999982,0.0026811786567560152,14.782946641889964
345,833.15,423.7,63.5,922,49.79,1,Apollo,1000,4.0,2500,834.7,632.7,1.0,1.5500000000000682,0.0036582487609159034,15.34562190229003
346,834.7,632.7,66.1,841,36.37,1,Apollo,1000,4.0,2500,836.81,626.1,1.0,2.1099999999999,0.003334913861229492,16.77728465307333
347,836.81,626.1,66.4,1049,34.92,1,Apollo,1000,4.0,2500,837.22,586.9,1.0,0.41000000000008185,0.000654847468455649,3.27711867113945
348,837.22,586.9,70.2,879,43.18,1,Apollo,1000,4.0,2500,845.39,378.9,1.0,8.169999999999959,0.013920599761458442,67.48149940364594
349,845.39,378.9,56.1,1096,49.77,1,Apollo,1000,4.0,2500,877.02,388.4,1.0,31.629999999999995,0.0834784903668514,335.21622591712844
350,877.02,388.4,51.4,1051,49.54,1,Apollo,1000,4.0,2500,915.13,208.0,1.0,38.110000000000014,0.0981204943357364,397.741235839341
351,915.13,208.0,73.2,604,33.82,1,Apollo,1000,4.0,2500,917.14,340.5,1.0,2.009999999999991,0.009663461538461494,32.198653846153704
352,917.14,340.5,55.7,940,49.19,1,Apollo,1000,4.0,2500,919.0,417.4,1.0,1.8600000000000136,0.005462555066079335,21.096387665198392
353,919.0,417.4,55.3,963,51.76,1,Apollo,1000,4.0,2500,923.23,289.1,1.0,4.230000000000018,0.010134163871586053,42.25540967896521
354,923.23,289.1,53.7,917,50.25,1,Apollo,1000,4.0,2500,924.94,530.9,1.0,1.7100000000000364,0.005914908336215967,21.627270840540064
355,924.94,530.9,57.1,1026,47.59,1,Apollo,1000,4.0,2500,930.65,497.8,1.0,5.709999999999923,0.010755321152759319,49.72830288189799
356,930.65,497.8,54.8,1150,47.58,1,Apollo,1000,4.0,2500,937.01,417.6,1.0,6.360000000000014,0.012776215347529157,57.38053836882295
357,937.01,417.6,50.4,1012,52.88,1,Apollo,1000,4.0,2500,947.08,519.4,1.0,10.07000000000005,0.02411398467432962,100.56496168582424
358,947.08,519.4,58.8,1151,51.44,1,Apollo,1000,4.0,2500,971.05,365.6,1.0,23.969999999999914,0.04614940315748925,211.25350789372277
359,971.05,365.6,48.5,854,48.95,1,Apollo,1000,4.0,2500,977.08,647.3,1.0,6.030000000000086,0.016493435448577915,65.35358862144514
360,977.08,647.3,58.3,654,42.21,1,Apollo,1000,4.0,2500,985.52,257.9,1.0,8.43999999999994,0.01303877645604811,66.35694114012003
361,985.52,257.9,53.0,568,50.12,1,Apollo,1000,4.0,2500,987.07,589.9,1.0,1.5500000000000682,0.00601008142690992,21.225203567275074
362,987.07,589.9,60.1,547,37.06,1,Apollo,1000,4.0,2500,1010.57,155.0,1.0,23.5,0.03983726055263604,193.5931513815901
363,1010.57,155.0,76.6,567,29.6,1,Apollo,1000,4.0,2500,1014.61,425.0,1.0,4.039999999999964,0.02606451612903202,81.32129032257991
364,1014.61,425.0,53.6,977,53.15,1,Apollo,1000,4.0,2500,1033.64,389.7,1.0,19.030000000000086,0.0447764705882355,188.0611764705891
365,1033.64,389.7,53.0,967,52.64,1,Apollo,1000,4.0,2500,1052.7,443.7,1.0,19.059999999999945,0.04890941750064138,198.51354375160324
366,1052.7,443.7,50.0,897,54.49,1,Apollo,1000,4.0,2500,1070.6,502.5,1.0,17.899999999999864,0.04034257381113334,172.4564345278328
367,1070.6,502.5,57.6,1043,49.39,1,Apollo,1000,4.0,2500,1074.65,621.7,1.0,4.050000000000182,0.008059701492537675,36.349253731344916
368,1074.65,621.7,60.8,857,39.67,1,Apollo,1000,4.0,2500,1075.23,621.7,1.0,0.5799999999999272,0.0009329258484798572,4.652314621199352
369,1075.23,621.7,61.7,960,40.31,1,Apollo,1000,4.0,2500,1076.67,621.6,1.0,1.4400000000000546,0.0023162296927779547,11.550574231945106
370,1076.67,621.6,61.0,885,37.88,1,Apollo,1000,4.0,2500,1104.57,248.6,1.0,27.899999999999864,0.04488416988416967,223.81042471042363
371,1104.57,248.6,105.4,89,0.64,1,Apollo,1000,4.0,2500,1105.75,628.4,1.0,1.1800000000000637,0.004746580852775799,16.58645213193975
372,1105.75,628.4,75.6,37,24.0,1,Apollo,1000,4.0,2500,1108.1,548.8,1.0,2.349999999999909,0.003739656269891644,18.749140674728746
373,1108.1,548.8,62.4,973,45.72,1,Apollo,1000,4.0,2500,1109.21,609.5,1.0,1.1100000000001273,0.002022594752186821,9.496486880467561
374,1109.21,609.5,57.5,972,52.78,1,Apollo,1000,4.0,2500,1110.95,690.5,1.0,1.740000000000009,0.0028547990155865614,14.096997538966441
375,1110.95,690.5,64.5,928,49.14,1,Apollo,1000,4.0,2500,1113.28,630.2,1.0,2.3299999999999272,0.003374366401158475,17.755916002895894
376,1113.28,630.2,56.9,993,49.24,1,Apollo,1000,4.0,2500,1114.78,634.1,1.0,1.5,0.002380196762932402,11.950491907331005
377,1114.78,634.1,55.9,979,50.57,1,Apollo,1000,4.0,2500,1116.8,744.7,1.0,2.019999999999982,0.003185617410503046,16.044043526257543
378,1116.8,744.7,54.6,1005,49.55,1,Apollo,1000,4.0,2500,1119.12,498.1,1.0,2.3199999999999363,0.0031153484624680226,17.068371156169803
379,1119.12,498.1,56.2,1092,52.11,1,Apollo,1000,4.0,2500,1120.52,476.9,1.0,1.400000000000091,0.0028106805862278474,12.626701465569983
380,1120.52,476.9,55.7,992,48.95,1,Apollo,1000,4.0,2500,1121.03,510.8,1.0,0.5099999999999909,0.0010694065841895385,4.7135164604738105
381,1121.03,510.8,53.3,1035,51.39,1,Apollo,1000,4.0,2500,1122.56,614.9,1.0,1.5299999999999727,0.0029953014878621237,13.608253719655199
382,1122.56,614.9,57.5,962,53.92,1,Apollo,1000,4.0,2500,1123.05,595.4,1.0,0.4900000000000091,0.0007968775410636024,3.9521938526590423
383,1123.05,595.4,53.8,1143,49.36,1,Apollo,1000,4.0,2500,1126.69,555.7,1.0,3.6400000000001,0.006113537117904098,29.843842794760647
384,1126.69,555.7,57.3,1115,55.39,1,Apollo,1000,4.0,2500,1127.21,649.6,1.0,0.5199999999999818,0.0009357567032571202,4.419391758142728
385,1127.21,649.6,56.5,1023,47.35,1,Apollo,1000,4.0,2500,1128.66,627.2,1.0,1.4500000000000455,0.0022321428571429273,11.3803571428575
386,1128.66,627.2,53.7,967,50.0,1,Apollo,1000,4.0,2500,1130.57,511.6,1.0,1.9099999999998545,0.0030452806122446656,15.253201530611083
387,1130.57,511.6,55.6,1032,53.49,1,Apollo,1000,4.0,2500,1132.52,580.1,1.0,1.9500000000000455,0.003811571540265922,17.328928850664987
388,1132.52,580.1,54.1,1047,54.52,1,Apollo,1000,4.0,2500,1133.13,555.4,1.0,0.6100000000001273,0.0010515428374420397,5.068857093605608
389,1133.13,555.4,56.9,1111,47.33,1,Apollo,1000,4.0,2500,1136.77,608.5,1.0,3.6399999999998727,0.00655383507382044,30.94458768455059
390,1136.77,608.5,57.5,1093,54.54,1,Apollo,1000,4.0,2500,1137.07,675.2,1.0,0.2999999999999545,0.000493015612160977,2.4325390304022605
391,1137.07,675.2,54.4,1078,51.01,1,Apollo,1000,4.0,2500,1138.51,675.2,1.0,1.4400000000000546,0.0021327014218010284,11.09175355450279
392,1138.51,675.2,56.8,1005,48.01,1,Apollo,1000,4.0,2500,1142.77,523.8,1.0,4.259999999999991,0.006309241706161123,32.81310426540277
393,1142.77,523.8,58.8,1145,51.48,1,Apollo,1000,4.0,2500,1144.65,481.0,1.0,1.8800000000001091,0.0035891561664759633,16.492890416190345
394,1144.65,481.0,50.6,995,52.74,1,Apollo,1000,4.0,2500,1146.64,448.1,1.0,1.990000000000009,0.004137214137214156,18.303035343035425
395,1146.64,448.1,52.5,984,52.47,1,Apollo,1000,4.0,2500,1157.19,585.5,1.0,10.549999999999955,0.023543851818790346,101.05962954697569
396,1157.19,585.5,55.6,1087,50.79,1,Apollo,1000,4.0,2500,1158.69,634.8,1.0,1.5,0.0025619128949615714,12.404782237403928
397,1158.69,634.8,54.2,896,51.15,1,Apollo,1000,4.0,2500,1173.16,553.6,1.0,14.470000000000027,0.022794580970384417,114.86645242596114
398,1173.16,553.6,55.7,1115,53.61,1,Apollo,1000,4.0,2500,1202.51,164.9,1.0,29.34999999999991,0.053016618497109654,249.94154624277377
399,1202.51,164.9,61.1,752,47.69,1,Apollo,1000,4.0,2500,1204.51,152.2,1.0,2.0,0.01212856276531231,38.32140691328078
400,1204.51,152.2,56.9,783,52.12,1,Apollo,1000,4.0,2500,1205.03,149.3,1.0,0.5199999999999818,0.0034165571616293156,10.621392904073216
401,1205.03,149.3,56.7,830,51.37,1,Apollo,1000,4.0,2500,1206.05,151.6,1.0,1.0199999999999818,0.0068318821165437495,21.159705291359302
402,1206.05,151.6,54.0,663,51.0,1,Apollo,1000,4.0,2500,1207.04,149.5,1.0,0.9900000000000091,0.0065303430079156274,20.285857519789104
403,1207.04,149.5,57.1,653,51.72,1,Apollo,1000,4.0,2500,1209.02,149.4,1.0,1.9800000000000182,0.013244147157190758,41.03036789297697
404,1209.02,149.4,55.5,722,52.06,1,Apollo,1000,4.0,2500,1210.51,145.4,1.0,1.490000000000009,0.00997322623828654,30.893065595716386
405,1210.51,145.4,56.5,706,52.88,1,Apollo,1000,4.0,2500,1211.05,150.8,1.0,0.5399999999999636,0.0037138927097659117,11.444731774414635
406,1211.05,150.8,54.0,702,52.78,1,Apollo,1000,4.0,2500,1212.56,148.9,1.0,1.509999999999991,0.010013262599469434,31.073156498673548
407,1212.56,148.9,55.7,626,51.47,1,Apollo,1000,4.0,2500,1213.02,147.6,1.0,0.4600000000000364,0.003089321692411258,9.56330423102829
408,1213.02,147.6,55.2,669,51.69,1,Apollo,1000,4.0,2500,1214.56,147.1,1.0,1.5399999999999636,0.010433604336043114,32.24401084010764
409,1214.56,147.1,56.0,745,51.66,1,Apollo,1000,4.0,2500,1215.03,151.0,1.0,0.4700000000000273,0.0031951053704964466,9.867763426241225
410,1215.03,151.0,53.7,705,52.72,1,Apollo,1000,4.0,2500,1217.06,144.8,1.0,2.0299999999999727,0.013443708609271342,41.72927152317825
411,1217.06,144.8,54.5,719,52.59,1,Apollo,1000,4.0,2500,1218.55,151.1,1.0,1.490000000000009,0.010290055248618845,31.68513812154715
412,1218.55,151.1,55.3,745,53.01,1,Apollo,1000,4.0,2500,1222.59,177.8,1.0,4.039999999999964,0.02673726009265363,83.00315023163392
413,1222.59,177.8,55.9,657,50.77,1,Apollo,1000,4.0,2500,1223.08,201.9,1.0,0.4900000000000091,0.0027559055118110748,8.849763779527724
414,1223.08,201.9,54.1,701,51.28,1,Apollo,1000,4.0,2500,1224.52,545.5,1.0,1.4400000000000546,0.00713224368499284,23.59060921248232
415,1224.52,545.5,55.0,909,49.45,1,Apollo,1000,4.0,2500,1225.3,584.3,1.0,0.7799999999999727,0.0014298808432630114,6.694702108157419
416,1225.3,584.3,56.9,1091,50.41,1,Apollo,1000,4.0,2500,1226.51,543.8,1.0,1.2100000000000364,0.0020708540133493694,10.01713503337357
417,1226.51,543.8,56.1,1230,49.5,1,Apollo,1000,4.0,2500,1228.56,477.0,1.0,2.0499999999999545,0.0037697682971679935,17.624420742919803
418,1228.56,477.0,56.0,1205,52.57,1,Apollo,1000,4.0,2500,1231.02,451.5,1.0,2.4600000000000364,0.005157232704402592,22.733081761006623
419,1231.02,451.5,54.9,1107,51.09,1,Apollo,1000,4.0,2500,1234.59,262.5,1.0,3.5699999999999363,0.007906976744185905,34.04744186046451
420,1234.59,262.5,56.9,893,49.78,1,Apollo,1000,4.0,2500,1240.08,246.9,1.0,5.490000000000009,0.020914285714285746,74.2457142857144
421,1240.08,246.9,52.8,876,51.5,1,Apollo,1000,4.0,2500,1241.14,324.3,1.0,1.0600000000001728,0.004293236127987739,14.973090319970039
422,1241.14,324.3,67.0,1066,41.46,1,Apollo,1000,4.0,2500,1247.05,675.3,1.0,5.9099999999998545,0.018223866790008803,69.19966697502142
423,1247.05,675.3,59.7,1058,48.64,1,Apollo,1000,4.0,2500,1251.0,454.7,1.0,3.9500000000000455,0.005849252184214491,30.42313046053641
424,1251.0,454.7,53.6,1131,53.26,1,Apollo,1000,4.0,2500,1297.18,121.4,1.0,46.180000000000064,0.10156146910050598,438.6236727512652
425,1297.18,121.4,84.7,340,24.1,1,Apollo,1000,4.0,2500,1298.64,388.0,1.0,1.4600000000000364,0.01202635914332814,35.90589785832049
426,1298.64,388.0,70.0,789,44.5,1,Apollo,1000,4.0,2500,1299.11,414.7,1.0,0.4699999999997999,0.0012113402061850512,4.908350515461828
427,1299.11,414.7,61.8,773,48.68,1,Apollo,1000,4.0,2500,1300.02,335.8,1.0,0.9100000000000819,0.0021943573667713573,9.12589341692872
428,1300.02,335.8,56.1,894,53.3,1,Apollo,1000,4.0,2500,1301.1,207.5,1.0,1.0799999999999272,0.003216200119118306,12.360500297795474
429,1301.1,207.5,56.9,767,53.02,1,Apollo,1000,4.0,2500,1302.53,156.4,1.0,1.4300000000000637,0.006891566265060548,22.948915662651626
430,1302.53,156.4,59.1,623,50.68,1,Apollo,1000,4.0,2500,1303.03,155.1,1.0,0.5,0.00319693094629156,9.992327365728901
431,1303.03,155.1,56.8,695,52.98,1,Apollo,1000,4.0,2500,1304.57,159.7,1.0,1.5399999999999636,0.009929078014184162,30.98269503546026
432,1304.57,159.7,59.3,710,52.2,1,Apollo,1000,4.0,2500,1306.53,153.5,1.0,1.9600000000000364,0.01227301189730768,38.522529743269345
433,1306.53,153.5,57.1,672,52.05,1,Apollo,1000,4.0,2500,1307.08,154.7,1.0,0.5499999999999545,0.0035830618892505185,11.157654723126115
434,1307.08,154.7,60.4,708,52.47,1,Apollo,1000,4.0,2500,1308.54,159.0,1.0,1.4600000000000364,0.00943762120232732,29.434053005818445
435,1308.54,159.0,59.3,613,51.4,1,Apollo,1000,4.0,2500,1309.05,163.2,1.0,0.5099999999999909,0.0032075471698112634,10.058867924528123
436,1309.05,163.2,59.4,795,50.06,1,Apollo,1000,4.0,2500,1310.55,156.2,1.0,1.5,0.009191176470588236,28.97794117647059
437,1310.55,156.2,57.0,656,51.73,1,Apollo,1000,4.0,2500,1311.04,160.7,1.0,0.4900000000000091,0.0031370038412292514,9.802509603073165
438,1311.04,160.7,56.4,677,51.73,1,Apollo,1000,4.0,2500,1312.52,158.2,1.0,1.4800000000000182,0.009209707529558296,28.94426882389581
439,1312.52,158.2,55.9,625,51.07,1,Apollo,1000,4.0,2500,1313.1,160.8,1.0,0.5799999999999272,0.003666245259165153,11.485613147912591
440,1313.1,160.8,54.1,591,51.59,1,Apollo,1000,4.0,2500,1314.54,162.1,1.0,1.4400000000000546,0.008955223880597354,28.1480597014936
441,1314.54,162.1,55.1,682,52.3,1,Apollo,1000,4.0,2500,1315.12,161.2,1.0,0.5799999999999272,0.0035780382479946157,11.265095619986248
442,1315.12,161.2,54.0,635,51.69,1,Apollo,1000,4.0,2500,1316.51,164.3,1.0,1.3900000000001,0.008622828784119728,27.11707196029972
443,1316.51,164.3,58.5,666,52.27,1,Apollo,1000,4.0,2500,1318.56,171.4,1.0,2.0499999999999545,0.012477175897747744,39.39293974436918
444,1318.56,171.4,58.1,625,52.09,1,Apollo,1000,4.0,2500,1319.02,167.7,1.0,0.4600000000000364,0.00268378063010523,8.54945157526322
445,1319.02,167.7,57.4,691,52.61,1,Apollo,1000,4.0,2500,1320.51,162.6,1.0,1.490000000000009,0.008884913536076382,28.172283840190993
446,1320.51,162.6,56.6,617,51.11,1,Apollo,1000,4.0,2500,1322.12,163.9,1.0,1.6099999999999,0.009901599015989545,31.193997539973463
447,1322.12,163.9,56.5,641,51.1,1,Apollo,1000,4.0,2500,1323.07,156.9,1.0,0.9500000000000455,0.005796217205613456,18.290543014033823
448,1323.07,156.9,55.4,709,51.95,1,Apollo,1000,4.0,2500,1326.04,170.5,1.0,2.9700000000000273,0.01892925430210342,59.203135755258664
449,1326.04,170.5,55.9,595,52.5,1,Apollo,1000,4.0,2500,1329.06,173.5,1.0,3.019999999999982,0.01771260997067438,56.361524926685874
450,1329.06,173.5,54.9,679,50.16,1,Apollo,1000,4.0,2500,1329.57,173.1,1.0,0.5099999999999909,0.002939481268011475,9.388703170028652
451,1329.57,173.1,56.9,701,51.44,1,Apollo,1000,4.0,2500,1331.25,186.4,1.0,1.6800000000000637,0.00970537261698477,30.983431542462178
452,1331.25,186.4,56.2,720,51.21,1,Apollo,1000,4.0,2500,1332.58,192.7,1.0,1.3299999999999272,0.00713519313304682,23.15798283261676
453,1332.58,192.7,59.8,741,49.78,1,Apollo,1000,4.0,2500,1333.0,208.6,1.0,0.42000000000007276,0.0021795537104310992,7.128884276078039
454,1333.0,208.6,57.6,635,44.1,1,Apollo,1000,4.0,2500,1335.1,197.7,1.0,2.099999999999909,0.010067114093959295,33.567785234897876
455,1335.1,197.7,56.3,767,51.19,1,Apollo,1000,4.0,2500,1335.51,193.4,1.0,0.41000000000008185,0.0020738492665659173,6.824623166415121
456,1335.51,193.4,53.8,763,52.59,1,Apollo,1000,4.0,2500,1338.51,230.9,1.0,3.0,0.015511892450879007,50.779731127197515
457,1338.51,230.9,55.5,904,52.28,1,Apollo,1000,4.0,2500,1339.04,248.9,1.0,0.5299999999999727,0.0022953659592896175,7.858414898223935
458,1339.04,248.9,55.0,856,52.16,1,Apollo,1000,4.0,2500,1342.58,313.5,1.0,3.5399999999999636,0.014222579349136054,49.71644837283999
459,1342.58,313.5,57.5,1000,51.0,1,Apollo,1000,4.0,2500,1344.54,330.7,1.0,1.9600000000000364,0.006251993620414789,23.469984051037116
460,1344.54,330.7,53.6,991,52.53,1,Apollo,1000,4.0,2500,1348.85,357.9,1.0,4.309999999999945,0.013032960387057592,49.82240096764376
461,1348.85,357.9,53.3,1063,52.18,1,Apollo,1000,4.0,2500,1350.63,384.6,1.0,1.7800000000002,0.004973456272702432,19.55364068175688
462,1350.63,384.6,52.8,1020,51.94,1,Apollo,1000,4.0,2500,1354.11,372.8,1.0,3.479999999999791,0.009048361934476834,36.540904836191245
463,1354.11,372.8,54.4,1105,50.41,1,Apollo,1000,4.0,2500,1355.02,401.8,1.0,0.9100000000000819,0.0024409871244637387,9.742467811159674
464,1355.02,401.8,53.7,1044,50.52,1,Apollo,1000,4.0,2500,1356.58,389.1,1.0,1.5599999999999454,0.0038825286212044435,15.94632155301089
465,1356.58,389.1,56.1,1063,51.82,1,Apollo,1000,4.0,2500,1357.03,368.7,1.0,0.4500000000000455,0.001156515034695568,4.691287586739102
466,1357.03,368.7,55.9,1107,49.95,1,Apollo,1000,4.0,2500,1364.05,421.1,1.0,7.019999999999982,0.01903986981285593,75.67967453213976
467,1364.05,421.1,54.5,1115,51.03,1,Apollo,1000,4.0,2500,1368.56,417.7,1.0,4.509999999999991,0.010710045119923987,44.81511279980993
468,1368.56,417.7,55.2,1063,51.49,1,Apollo,1000,4.0,2500,1386.53,489.3,1.0,17.970000000000027,0.04302130715824762,179.43326789561917
469,1386.53,489.3,94.1,282,19.29,1,Apollo,1000,4.0,2500,1387.2,248.2,1.0,0.6700000000000728,0.0013693030860414321,6.103257715103871
470,1387.2,248.2,87.7,400,20.98,1,Apollo,1000,4.0,2500,1388.64,326.4,1.0,1.4400000000000546,0.005801772763900301,20.264431909750968
471,1388.64,326.4,83.0,431,25.07,1,Apollo,1000,4.0,2500,1389.08,353.3,1.0,0.4399999999998272,0.0013480392156857452,5.130098039213672
472,1389.08,353.3,83.0,449,24.94,1,Apollo,1000,4.0,2500,1390.59,343.2,1.0,1.509999999999991,0.0042739881120860196,16.72497028021501
473,1390.59,343.2,85.9,487,25.52,1,Apollo,1000,4.0,2500,1391.05,325.9,1.0,0.4600000000000364,0.0013403263403264463,5.190815850816261
474,1391.05,325.9,84.7,457,24.52,1,Apollo,1000,4.0,2500,1392.49,444.2,1.0,1.4400000000000546,0.0044185332924211555,16.80633323105311
475,1392.49,444.2,84.9,-1867,24.79,1,Apollo,1000,4.0,2500,1393.13,388.7,1.0,0.6400000000001,0.001440792435839937,6.161981089600243
476,1393.13,388.7,85.3,474,23.71,1,Apollo,1000,4.0,2500,1394.59,368.5,1.0,1.459999999999809,0.0037561101106246696,15.23027527656091
477,1394.59,368.5,85.3,488,24.44,1,Apollo,1000,4.0,2500,1395.11,381.0,1.0,0.5199999999999818,0.0014111261872455409,5.607815468113779
478,1395.11,381.0,85.3,470,24.43,1,Apollo,1000,4.0,2500,1396.55,258.9,1.0,1.4400000000000546,0.0037795275590552613,15.208818897638372
479,1396.55,258.9,93.7,226,17.61,1,Apollo,1000,4.0,2500,1397.21,444.2,1.0,0.6600000000000819,0.0025492468134417994,9.013117033604825
480,1397.21,444.2,91.1,-1867,21.35,1,Apollo,1000,4.0,2500,1398.68,1015.6,1.0,1.4700000000000273,0.0033093201260693994,14.153300315173608
481,1398.68,1015.6,80.8,-1866,27.6,1,Apollo,1000,4.0,2500,1399.09,417.2,1.0,0.4099999999998545,0.0004037022449781946,2.6492556124449047
482,1399.09,417.2,81.3,533,28.28,1,Apollo,1000,4.0,2500,1399.26,1536.6,1.0,0.17000000000007276,0.00040747842761283025,1.6986960690323667
483,1399.26,1536.6,85.5,-1866,25.71,1,Apollo,1000,4.0,2500,1400.77,5.9,1.0,1.509999999999991,0.0009826890537550377,8.496722634387558
484,1400.77,5.9,57.4,-1864,51.42,1,Apollo,1000,4.0,2500,1401.95,5.9,1.0,1.1800000000000637,0.20000000000001075,504.72000000002714
485,1401.95,5.9,83.4,-1864,25.23,1,Apollo,1000,4.0,2500,1402.95,5.9,1.0,1.0,0.1694915254237288,427.728813559322
486,1402.95,5.9,83.3,-1864,23.82,1,Apollo,1000,4.0,2500,1404.72,904.1,1.0,1.7699999999999818,0.29999999999999694,757.0799999999923
487,1404.72,904.1,84.8,-1864,25.28,1,Apollo,1000,4.0,2500,1405.18,386.3,1.0,0.4600000000000364,0.0005087932750802305,3.111983187700722
488,1405.18,386.3,82.8,384,24.95,1,Apollo,1000,4.0,2500,1406.56,617.5,1.0,1.3799999999998818,0.0035723530934503797,14.450882733625477
489,1406.56,617.5,85.2,-1865,24.48,1,Apollo,1000,4.0,2500,1407.11,1218.4,1.0,0.5499999999999545,0.0008906882591092381,4.426720647772914
490,1407.11,1218.4,83.7,-1865,24.83,1,Apollo,1000,4.0,2500,1408.53,1790.7,1.0,1.4200000000000728,0.0011654629021668357,8.59365725541738
491,1408.53,1790.7,86.1,-1865,23.42,1,Apollo,1000,4.0,2500,1409.08,1194.4,1.0,0.5499999999999545,0.0003071424582565223,2.967856145641124
492,1409.08,1194.4,82.8,-1866,24.01,1,Apollo,1000,4.0,2500,1410.53,1892.0,1.0,1.4500000000000455,0.0012139986604153092,8.834996651038455
493,1410.53,1892.0,84.7,-1865,24.11,1,Apollo,1000,4.0,2500,1411.08,438.7,1.0,0.5499999999999545,0.00029069767441858063,2.9267441860462697
494,1411.08,438.7,83.0,427,24.06,1,Apollo,1000,4.0,2500,1411.61,388.6,1.0,0.5299999999999727,0.0012081148848871045,5.140287212217652
495,1411.61,388.6,84.1,-1867,23.58,1,Apollo,1000,4.0,2500,1413.15,369.4,1.0,1.540000000000191,0.003962943901184228,16.067359752961334
496,1413.15,369.4,84.5,510,23.52,1,Apollo,1000,4.0,2500,1414.07,388.6,1.0,0.9199999999998454,0.0024905251759605993,9.906312939900879
497,1414.07,388.6,82.1,-1867,24.8,1,Apollo,1000,4.0,2500,1415.14,388.6,1.0,1.0700000000001637,0.002753474009264446,11.16368502316177
498,1415.14,388.6,84.2,-1867,25.18,1,Apollo,1000,4.0,2500,1416.53,389.6,1.0,1.3899999999998727,0.003576942871847331,14.502357179617817
499,1416.53,389.6,85.2,561,23.95,1,Apollo,1000,4.0,2500,1417.07,361.1,1.0,0.5399999999999636,0.0013860369609855327,5.625092402463686
500,1417.07,361.1,77.6,422,25.81,1,Apollo,1000,4.0,2500,1418.27,413.5,1.0,1.2000000000000455,0.0033231791747439644,13.107947936860093
501,1418.27,413.5,83.1,497,25.23,1,Apollo,1000,4.0,2500,1419.4,835.9,1.0,1.1300000000001091,0.0027327690447402878,11.351922611851155
502,1419.4,835.9,82.0,-1866,24.6,1,Apollo,1000,4.0,2500,1420.59,154.2,1.0,1.1899999999998272,0.001423615264983643,8.319038162458416
503,1420.59,154.2,81.4,-1866,28.26,1,Apollo,1000,4.0,2500,1421.0,267.8,1.0,0.41000000000008185,0.0026588845654998824,8.287211413750033
504,1421.0,267.8,82.7,430,26.41,1,Apollo,1000,4.0,2500,1422.56,11.4,1.0,1.5599999999999454,0.005825242718446397,20.803106796115777
505,1422.56,11.4,84.5,-1866,24.3,1,Apollo,1000,4.0,2500,1423.12,435.7,1.0,0.5599999999999454,0.04912280701753907,125.04701754384746
506,1423.12,435.7,83.4,469,24.26,1,Apollo,1000,4.0,2500,1424.61,446.7,1.0,1.490000000000009,0.0034197842552215036,14.509460638053795
507,1424.61,446.7,83.2,491,24.08,1,Apollo,1000,4.0,2500,1426.85,22.8,1.0,2.240000000000009,0.005014551152899058,21.496377882247682
508,1426.85,22.8,82.2,-1865,24.87,1,Apollo,1000,4.0,2500,1427.03,434.3,1.0,0.18000000000006366,0.007894736842108056,20.456842105270397
509,1427.03,434.3,83.2,502,25.9,1,Apollo,1000,4.0,2500,1427.59,446.8,1.0,0.5599999999999454,0.0012894312687081405,5.463578171770133
510,1427.59,446.8,81.3,470,24.61,1,Apollo,1000,4.0,2500,1429.07,416.1,1.0,1.4800000000000182,0.0033124440465533084,14.201110116383344
511,1429.07,416.1,82.6,461,25.99,1,Apollo,1000,4.0,2500,1430.58,405.5,1.0,1.509999999999991,0.003628935352078805,15.112338380196977
512,1430.58,405.5,82.9,478,25.55,1,Apollo,1000,4.0,2500,1432.67,22.8,1.0,2.0900000000001455,0.005154130702836364,21.24532675709149
513,1432.67,22.8,79.8,-1865,26.24,1,Apollo,1000,4.0,2500,1433.04,427.8,1.0,0.36999999999989086,0.01622807017543381,42.05017543858409
514,1433.04,427.8,81.9,505,26.12,1,Apollo,1000,4.0,2500,1434.5,425.8,1.0,1.4600000000000364,0.003412809724170258,14.372024310425791
515,1434.5,425.8,81.4,-1865,25.46,1,Apollo,1000,4.0,2500,1435.09,621.6,1.0,0.5899999999999181,0.001385627054955186,5.824067637387637
516,1435.09,621.6,81.9,-1865,24.48,1,Apollo,1000,4.0,2500,1436.16,906.6,1.0,1.0700000000001637,0.0017213642213644847,8.583410553411866
517,1436.16,906.6,81.3,-1865,24.55,1,Apollo,1000,4.0,2500,1437.1,1123.0,1.0,0.9399999999998272,0.001036840944186882,6.352102360466514
518,1437.1,1123.0,80.1,-1865,24.65,1,Apollo,1000,4.0,2500,1438.54,408.9,1.0,1.4400000000000546,0.0012822796081923906,8.965699020481194
519,1438.54,408.9,81.6,444,24.83,1,Apollo,1000,4.0,2500,1439.07,2141.6,1.0,0.5299999999999727,0.0012961604304230197,5.36040107605744
520,1439.07,2141.6,81.9,-1865,25.52,1,Apollo,1000,4.0,2500,1440.54,406.2,1.0,1.4700000000000273,0.0006864026895778984,7.596006723944855
521,1440.54,406.2,81.8,441,24.66,1,Apollo,1000,4.0,2500,1441.07,2430.8,1.0,0.5299999999999727,0.0013047759724273084,5.381939931068162
522,1441.07,2430.8,78.5,-1865,25.91,1,Apollo,1000,4.0,2500,1442.56,2457.3,1.0,1.490000000000009,0.0006129669244693142,7.492417311173321
523,1442.56,2457.3,80.1,-1864,24.35,1,Apollo,1000,4.0,2500,1443.07,391.4,1.0,0.5099999999999909,0.00020754486631668534,2.558862165791677
524,1443.07,391.4,80.3,477,24.83,1,Apollo,1000,4.0,2500,1444.51,1647.0,1.0,1.4400000000000546,0.0036791006642822037,14.957751660705728
525,1444.51,1647.0,80.8,-1864,25.88,1,Apollo,1000,4.0,2500,1445.05,1647.0,1.0,0.5399999999999636,0.0003278688524589943,2.97967213114734
526,1445.05,1647.0,80.1,-1864,24.15,1,Apollo,1000,4.0,2500,1446.63,554.7,1.0,1.5800000000001546,0.0009593199757135121,8.7182999392844
527,1446.63,554.7,82.9,-1865,25.64,1,Apollo,1000,4.0,2500,1448.64,3002.7,1.0,2.009999999999991,0.0036235803136830547,17.098950784207602
528,1448.64,3002.7,83.4,-1865,24.13,1,Apollo,1000,4.0,2500,1449.15,402.8,1.0,0.5099999999999909,0.0001698471375761784,2.4646178439404096
529,1449.15,402.8,80.2,455,25.1,1,Apollo,1000,4.0,2500,1450.54,3002.7,1.0,1.3899999999998727,0.0034508440913601605,14.187110228399892
530,1450.54,3002.7,80.4,-1866,25.31,1,Apollo,1000,4.0,2500,1452.63,3002.7,1.0,2.0900000000001455,0.0006960402304593018,10.100100576148836
531,1452.63,3002.7,81.8,-1866,24.26,1,Apollo,1000,4.0,2500,1453.01,401.2,1.0,0.37999999999988177,0.00012655276917437035,1.836381922935453
532,1453.01,401.2,78.8,503,25.88,1,Apollo,1000,4.0,2500,1454.59,3002.7,1.0,1.5799999999999272,0.003938185443668812,16.165463609171738
533,1454.59,3002.7,79.6,-1865,24.53,1,Apollo,1000,4.0,2500,1455.11,384.1,1.0,0.5199999999999818,0.00017317747360708093,2.5129436840176296
534,1455.11,384.1,80.0,522,25.0,1,Apollo,1000,4.0,2500,1456.12,434.3,1.0,1.009999999999991,0.0026295235615724833,10.613808903931172
535,1456.12,434.3,81.0,500,24.9,1,Apollo,1000,4.0,2500,1457.14,382.0,1.0,1.0200000000002092,0.002348606953719109,9.951517384298608
536,1457.14,382.0,79.6,445,25.44,1,Apollo,1000,4.0,2500,1458.62,362.6,1.0,1.4799999999997908,0.003874345549737673,15.605863874343346
537,1458.62,362.6,80.1,513,24.88,1,Apollo,1000,4.0,2500,1459.15,385.6,1.0,0.5300000000002001,0.0014616657473805847,5.774164368452262
538,1459.15,385.6,81.4,521,24.33,1,Apollo,1000,4.0,2500,1460.8,3002.7,1.0,1.6499999999998636,0.004279045643153173,17.297614107882385
539,1460.8,3002.7,80.7,-1865,24.33,1,Apollo,1000,4.0,2500,1461.14,376.9,1.0,0.3400000000001455,0.0001132314250508361,1.6430785626276723
540,1461.14,376.9,79.7,500,25.82,1,Apollo,1000,4.0,2500,1462.57,378.2,1.0,1.4299999999998363,0.0037941098434593696,15.20527460864777
541,1462.57,378.2,78.9,509,25.12,1,Apollo,1000,4.0,2500,1463.04,353.2,1.0,0.4700000000000273,0.0012427287149656989,4.986821787414357
542,1463.04,353.2,79.0,457,24.98,1,Apollo,1000,4.0,2500,1464.73,3002.7,1.0,1.6900000000000546,0.004784824462061309,18.72206115515349
543,1464.73,3002.7,81.3,-1865,25.44,1,Apollo,1000,4.0,2500,1465.2,349.0,1.0,0.4700000000000273,0.00015652579345256846,2.27131448363153
544,1465.2,349.0,81.5,509,25.19,1,Apollo,1000,4.0,2500,1466.09,338.0,1.0,0.8899999999998727,0.0025501432664752797,9.93535816618769
545,1466.09,338.0,81.6,528,25.08,1,Apollo,1000,4.0,2500,1468.5,509.2,1.0,2.410000000000082,0.007130177514793142,27.465443786983183
546,1468.5,509.2,89.6,331,23.9,1,Apollo,1000,4.0,2500,1469.08,306.1,1.0,0.5799999999999272,0.0011390416339354423,5.167604084838315
547,1469.08,306.1,90.4,430,21.99,1,Apollo,1000,4.0,2500,1470.53,3002.7,1.0,1.4500000000000455,0.0047370140476969795,17.64253511924263
548,1470.53,3002.7,87.3,-1865,23.12,1,Apollo,1000,4.0,2500,1471.12,341.4,1.0,0.5899999999999181,0.00019648982582339835,2.8512245645581684
549,1471.12,341.4,85.4,365,26.67,1,Apollo,1000,4.0,2500,1472.54,270.0,1.0,1.4200000000000728,0.004159343878149012,16.07835969537282
550,1472.54,270.0,86.0,392,25.51,1,Apollo,1000,4.0,2500,1473.01,284.9,1.0,0.4700000000000273,0.0017407407407408419,6.2318518518522135
551,1473.01,284.9,85.1,343,25.66,1,Apollo,1000,4.0,2500,1474.53,3002.7,1.0,1.5199999999999818,0.0053352053352052715,19.418013338013104
552,1474.53,3002.7,85.2,-1865,25.18,1,Apollo,1000,4.0,2500,1475.09,255.2,1.0,0.5599999999999454,0.00018649881773069086,2.706247044326509
553,1475.09,255.2,85.3,392,23.76,1,Apollo,1000,4.0,2500,1476.64,3002.7,1.0,1.550000000000182,0.006073667711599459,21.384169278999373
554,1476.64,3002.7,85.7,-1866,24.66,1,Apollo,1000,4.0,2500,1477.1,268.4,1.0,0.459999999999809,0.00015319545742159026,2.2229886435532116
555,1477.1,268.4,86.0,360,26.51,1,Apollo,1000,4.0,2500,1478.54,0.0,1.0,1.4400000000000546,0.00536512667660229,19.172816691505943
556,1478.54,0.0,85.3,-1864,25.17,1,Apollo,1000,4.0,2500,1479.48,281.9,1.0,0.9400000000000546,0.0,3.7600000000002183
557,1479.48,281.9,100.4,347,11.69,1,Apollo,1000,4.0,2500,1480.73,663.4,1.0,1.25,0.004434196523589926,16.085491308974817
558,1480.73,663.4,101.1,173,10.0,1,Apollo,1000,4.0,2500,1481.44,542.1,1.0,0.7100000000000364,0.0010702441965632144,5.515610491408181
559,1481.44,542.1,97.4,260,15.77,1,Apollo,1000,4.0,2500,1482.15,569.8,1.0,0.7100000000000364,0.0013097214536064126,6.114303634016177
560,1482.15,569.8,90.4,299,20.66,1,Apollo,1000,4.0,2500,1484.83,19.7,1.0,2.6799999999998363,0.004703404703404417,22.478511758510386
561,1484.83,19.7,92.4,-1865,17.87,1,Apollo,1000,4.0,2500,1485.1,561.2,1.0,0.2699999999999818,0.013705583756344255,35.34395939086056
562,1485.1,561.2,92.4,268,17.97,1,Apollo,1000,4.0,2500,1486.26,563.7,1.0,1.1600000000000819,0.0020669992872417707,9.807498218104755
563,1486.26,563.7,93.6,312,16.66,1,Apollo,1000,4.0,2500,1487.17,741.4,1.0,0.9100000000000819,0.001614333865531456,7.675834663828968
564,1487.17,741.4,90.4,342,20.06,1,Apollo,1000,4.0,2500,1488.7,19.7,1.0,1.5299999999999727,0.0020636633396276948,11.279158349069128
565,1488.7,19.7,87.7,-1865,22.48,1,Apollo,1000,4.0,2500,1489.08,19.7,1.0,0.37999999999988177,0.01928934010151684,49.743350253791625
566,1489.08,19.7,53.4,-1865,51.2,1,Apollo,1000,4.0,2500,1490.03,19.7,1.0,0.9500000000000455,0.04822335025380942,124.35837563452374
567,1490.03,19.7,85.2,-1865,24.72,1,Apollo,1000,4.0,2500,1491.17,439.7,1.0,1.1400000000001,0.0578680203045736,149.2300507614344
568,1491.17,439.7,82.0,295,34.66,1,Apollo,1000,4.0,2500,1491.52,16.6,1.0,0.34999999999990905,0.000795997270866293,3.389993177165369
569,1491.52,16.6,85.7,-1865,28.71,1,Apollo,1000,4.0,2500,1493.1,528.7,1.0,1.5799999999999272,0.09518072289156188,244.2718072289044
570,1493.1,528.7,83.7,493,25.86,1,Apollo,1000,4.0,2500,1494.77,16.6,1.0,1.6700000000000728,0.0031586911291849305,14.576727822962617
571,1494.77,16.6,81.4,-1866,29.04,1,Apollo,1000,4.0,2500,1495.09,383.5,1.0,0.31999999999993634,0.019277108433731104,49.472771084327505
572,1495.09,383.5,86.1,529,25.65,1,Apollo,1000,4.0,2500,1496.55,16.6,1.0,1.4600000000000364,0.0038070404172100033,15.357601043025154
573,1496.55,16.6,82.0,-1867,26.15,1,Apollo,1000,4.0,2500,1497.37,16.6,1.0,0.8199999999999363,0.049397590361441944,126.77397590360461
574,1497.37,16.6,86.3,-1867,18.53,1,Apollo,1000,4.0,2500,1498.59,581.3,1.0,1.2200000000000273,0.07349397590361609,188.61493975904034
575,1498.59,581.3,81.0,477,26.76,1,Apollo,1000,4.0,2500,1500.54,437.3,1.0,1.9500000000000455,0.003354550146224059,16.18637536556033
576,1500.54,437.3,82.6,460,26.13,1,Apollo,1000,4.0,2500,1501.4,16.6,1.0,0.8600000000001273,0.0019666133089415215,8.356533272354312
577,1501.4,16.6,82.4,-1865,28.4,1,Apollo,1000,4.0,2500,1502.79,539.7,1.0,1.3899999999998727,0.08373493975902847,214.89734939757068
578,1502.79,539.7,87.9,488,29.81,1,Apollo,1000,4.0,2500,1502.77,16.6,1.0,-0.01999999999998181,-3.705762460622903e-05,-0.17264406151549982
579,1502.77,16.6,64.3,-1865,45.09,1,Apollo,1000,4.0,2500,1504.52,16.6,1.0,1.75,0.10542168674698796,270.5542168674699
580,1504.52,16.6,88.2,-1865,18.97,1,Apollo,1000,4.0,2500,1505.07,648.2,1.0,0.5499999999999545,0.03313253012047918,85.03132530119777
581,1505.07,648.2,81.4,389,27.12,1,Apollo,1000,4.0,2500,1506.73,16.6,1.0,1.6600000000000819,0.002560937982104415,13.042344955261363
582,1506.73,16.6,88.5,-1865,28.6,1,Apollo,1000,4.0,2500,1507.08,475.6,1.0,0.34999999999990905,0.02108433734939211,54.11084337347991
583,1507.08,475.6,83.6,507,26.32,1,Apollo,1000,4.0,2500,1508.54,16.6,1.0,1.4600000000000364,0.0030698065601346435,13.514516400336754
584,1508.54,16.6,85.8,-1865,25.45,1,Apollo,1000,4.0,2500,1510.58,358.9,1.0,2.0399999999999636,0.12289156626505805,315.388915662645
585,1510.58,358.9,83.5,501,25.31,1,Apollo,1000,4.0,2500,1511.08,396.8,1.0,0.5,0.0013931457230426303,5.482864307606576
586,1511.08,396.8,79.7,477,26.36,1,Apollo,1000,4.0,2500,1512.72,397.4,1.0,1.6400000000001,0.004133064516129285,16.892661290323613
587,1512.72,397.4,81.4,468,28.85,1,Apollo,1000,4.0,2500,1513.05,16.6,1.0,0.32999999999992724,0.0008303975842977536,3.395993960744093
588,1513.05,16.6,79.0,-1864,28.18,1,Apollo,1000,4.0,2500,1514.57,248.5,1.0,1.5199999999999818,0.09156626506023986,234.99566265059957
589,1514.57,248.5,81.0,416,27.02,1,Apollo,1000,4.0,2500,1516.58,280.0,1.0,2.009999999999991,0.0080885311871227,28.261327967806714
590,1516.58,280.0,82.0,455,26.17,1,Apollo,1000,4.0,2500,1517.14,291.8,1.0,0.5600000000001728,0.002000000000000617,7.240000000002234
591,1517.14,291.8,88.1,481,23.78,1,Apollo,1000,4.0,2500,1518.53,226.2,1.0,1.3899999999998727,0.0047635366689509,17.46884167237674
592,1518.53,226.2,81.9,450,26.96,1,Apollo,1000,4.0,2500,1519.03,228.6,1.0,0.5,0.0022104332449160036,7.526083112290009
593,1519.03,228.6,81.4,406,26.75,1,Apollo,1000,4.0,2500,1520.61,16.6,1.0,1.5799999999999272,0.006911636045493995,23.599090113734697
594,1520.61,16.6,82.2,-1864,25.79,1,Apollo,1000,4.0,2500,1522.67,309.1,1.0,2.060000000000173,0.12409638554217908,318.4809638554484
595,1522.67,309.1,79.1,473,27.67,1,Apollo,1000,4.0,2500,1524.51,236.5,1.0,1.8399999999999181,0.005952766095114585,22.241915237786134
596,1524.51,236.5,80.0,494,27.28,1,Apollo,1000,4.0,2500,1525.01,16.6,1.0,0.5,0.0021141649048625794,7.2854122621564485
597,1525.01,16.6,80.5,-1864,26.89,1,Apollo,1000,4.0,2500,1526.52,322.7,1.0,1.509999999999991,0.09096385542168618,233.44963855421543
598,1526.52,322.7,89.0,334,17.7,1,Apollo,1000,4.0,2500,1528.5,191.3,1.0,1.9800000000000182,0.0061357297799814635,23.25932444995373
599,1528.5,191.3,79.5,476,28.02,1,Apollo,1000,4.0,2500,1529.11,160.4,1.0,0.6099999999999,0.0031887088342911654,10.411772085727513
600,1529.11,160.4,80.8,437,27.03,1,Apollo,1000,4.0,2500,1530.56,167.6,1.0,1.4500000000000455,0.009039900249376842,28.399750623442287
601,1530.56,167.6,81.3,431,27.1,1,Apollo,1000,4.0,2500,1531.06,16.6,1.0,0.5,0.0029832935560859188,9.458233890214796
602,1531.06,16.6,79.1,-1865,27.43,1,Apollo,1000,4.0,2500,1532.55,156.3,1.0,1.490000000000009,0.08975903614457885,230.35759036144717
603,1532.55,156.3,79.5,385,26.91,1,Apollo,1000,4.0,2500,1533.04,159.8,1.0,0.4900000000000091,0.0031349968010237306,9.797492002559363
604,1533.04,159.8,80.8,407,26.56,1,Apollo,1000,4.0,2500,1534.54,184.9,1.0,1.5,0.009386733416770963,29.466833541927407
605,1534.54,184.9,79.9,433,26.85,1,Apollo,1000,4.0,2500,1535.06,173.4,1.0,0.5199999999999818,0.0028123309897240766,9.110827474310119
606,1535.06,173.4,80.8,403,25.85,1,Apollo,1000,4.0,2500,1536.63,189.4,1.0,1.5700000000001637,0.009054209919262765,28.91552479815757
607,1536.63,189.4,81.5,462,25.08,1,Apollo,1000,4.0,2500,1537.02,16.6,1.0,0.38999999999987267,0.002059134107707881,6.707835269269193
608,1537.02,16.6,63.1,-1865,43.45,1,Apollo,1000,4.0,2500,1538.63,256.7,1.0,1.6100000000001273,0.09698795180723659,248.90987951809197
609,1538.63,256.7,87.8,359,17.87,1,Apollo,1000,4.0,2500,1539.17,261.0,1.0,0.5399999999999636,0.0021036229061159473,7.419057265289723
610,1539.17,261.0,82.0,376,23.86,1,Apollo,1000,4.0,2500,1540.04,218.3,1.0,0.8699999999998909,0.003333333333332915,11.813333333331851
611,1540.04,218.3,80.5,420,26.49,1,Apollo,1000,4.0,2500,1541.09,214.2,1.0,1.0499999999999545,0.004809894640402906,16.224736601007084
612,1541.09,214.2,74.9,418,31.13,1,Apollo,1000,4.0,2500,1542.53,192.7,1.0,1.4400000000000546,0.0067226890756305075,22.56672268907649
613,1542.53,192.7,81.0,447,24.78,1,Apollo,1000,4.0,2500,1543.11,16.6,1.0,0.5799999999999272,0.0030098598858325234,9.844649714581017
614,1543.11,16.6,85.7,-1865,21.96,1,Apollo,1000,4.0,2500,1544.57,198.7,1.0,1.4600000000000364,0.08795180722891785,225.71951807229476
615,1544.57,198.7,80.8,455,25.51,1,Apollo,1000,4.0,2500,1545.02,178.3,1.0,0.4500000000000455,0.002264720684449147,7.46180171112305
616,1545.02,178.3,84.1,444,21.14,1,Apollo,1000,4.0,2500,1546.5,169.2,1.0,1.4800000000000182,0.008300616937745474,26.671542344363758
617,1546.5,169.2,83.5,361,22.99,1,Apollo,1000,4.0,2500,1547.01,160.5,1.0,0.5099999999999909,0.003014184397163067,9.57546099290763
618,1547.01,160.5,82.8,396,23.4,1,Apollo,1000,4.0,2500,1550.54,177.4,1.0,3.5299999999999727,0.021993769470404812,69.10442367601192
619,1550.54,177.4,82.9,410,22.23,1,Apollo,1000,4.0,2500,1552.57,196.3,1.0,2.0299999999999727,0.011443066516347083,36.7276662908676
620,1552.57,196.3,84.1,433,22.89,1,Apollo,1000,4.0,2500,1553.03,191.4,1.0,0.4600000000000364,0.0023433520122263696,7.69838003056607
621,1553.03,191.4,82.8,400,22.92,1,Apollo,1000,4.0,2500,1554.63,213.3,1.0,1.6000000000001364,0.008359456635319416,27.298641588299088
622,1554.63,213.3,82.1,431,23.01,1,Apollo,1000,4.0,2500,1555.03,16.6,1.0,0.3999999999998636,0.001875293014532881,6.288232536331657
623,1555.03,16.6,81.7,-1866,22.43,1,Apollo,1000,4.0,2500,1556.05,209.4,1.0,1.0199999999999818,0.061445783132529026,157.6944578313225
624,1556.05,209.4,82.5,364,23.38,1,Apollo,1000,4.0,2500,1557.06,205.3,1.0,1.009999999999991,0.004823304680038161,16.098261700095364
625,1557.06,205.3,81.8,377,23.21,1,Apollo,1000,4.0,2500,1558.56,186.6,1.0,1.5,0.007306380905991232,24.26595226497808
626,1558.56,186.6,83.1,383,23.25,1,Apollo,1000,4.0,2500,1559.02,174.3,1.0,0.4600000000000364,0.002465166130761181,8.002915326903098
627,1559.02,174.3,81.5,312,22.78,1,Apollo,1000,4.0,2500,1560.56,16.6,1.0,1.5399999999999636,0.008835341365461638,28.248353413653952
628,1560.56,16.6,83.1,-1866,22.64,1,Apollo,1000,4.0,2500,1561.04,175.5,1.0,0.4800000000000182,0.0289156626506035,74.20915662650883
629,1561.04,175.5,81.6,379,23.32,1,Apollo,1000,4.0,2500,1562.57,175.4,1.0,1.5299999999999727,0.008717948717948563,27.9148717948713
630,1562.57,175.4,81.0,385,23.29,1,Apollo,1000,4.0,2500,1563.06,162.5,1.0,0.4900000000000091,0.0027936145952109984,8.944036488027532
631,1563.06,162.5,82.2,409,22.91,1,Apollo,1000,4.0,2500,1564.52,92.6,1.0,1.4600000000000364,0.00898461538461561,28.30153846153917
632,1564.52,92.6,89.8,136,20.9,1,Apollo,1000,4.0,2500,1565.07,156.3,1.0,0.5499999999999545,0.005939524838012468,17.04881209503099
633,1565.07,156.3,89.5,197,21.42,1,Apollo,1000,4.0,2500,1566.61,16.6,1.0,1.5399999999999636,0.009852847088931308,30.792117722328125
634,1566.61,16.6,103.2,-1866,10.81,1,Apollo,1000,4.0,2500,1567.08,257.5,1.0,0.4700000000000273,0.028313253012049837,72.6631325301247
635,1567.08,257.5,105.1,0,6.01,1,Apollo,1000,4.0,2500,1568.52,273.5,1.0,1.4400000000000546,0.00559223300970895,19.740582524272593
636,1568.52,273.5,107.1,59,4.44,1,Apollo,1000,4.0,2500,1569.09,286.0,1.0,0.5699999999999363,0.002084095063985142,7.490237659962601
637,1569.09,286.0,102.7,0,7.31,1,Apollo,1000,4.0,2500,1570.16,403.8,1.0,1.0700000000001637,0.0037412587412593134,13.633146853148938
638,1570.16,403.8,104.1,54,7.68,1,Apollo,1000,4.0,2500,1571.22,446.2,1.0,1.0599999999999454,0.002625061911837408,10.8026547795933
639,1571.22,446.2,102.2,93,19.31,1,Apollo,1000,4.0,2500,1572.63,16.6,1.0,1.4100000000000819,0.0031600179291799233,13.540044822950136
640,1572.63,16.6,87.3,-1867,22.95,1,Apollo,1000,4.0,2500,1574.56,407.3,1.0,1.9299999999998363,0.11626506024095398,298.3826506023843
641,1574.56,407.3,85.4,386,25.66,1,Apollo,1000,4.0,2500,1575.11,406.8,1.0,0.5499999999999545,0.0013503560029461195,5.575890007365117
642,1575.11,406.8,86.6,378,24.49,1,Apollo,1000,4.0,2500,1576.6,416.6,1.0,1.490000000000009,0.00366273352999019,15.116833824975512
643,1576.6,416.6,87.0,395,24.56,1,Apollo,1000,4.0,2500,1577.11,402.1,1.0,0.5099999999999909,0.0012241958713393925,5.1004896783484455
644,1577.11,402.1,83.8,337,24.13,1,Apollo,1000,4.0,2500,1578.01,16.6,1.0,0.900000000000091,0.0022382491917435736,9.195622979359298
645,1578.01,16.6,89.7,-1867,23.38,1,Apollo,1000,4.0,2500,1580.59,1080.7,1.0,2.5799999999999272,0.15542168674698356,398.8742168674586
646,1580.59,1080.7,87.0,-1865,23.14,1,Apollo,1000,4.0,2500,1581.13,487.7,1.0,0.540000000000191,0.0004996761358380596,3.409190339595913
647,1581.13,487.7,84.8,438,25.26,1,Apollo,1000,4.0,2500,1582.84,456.1,1.0,1.709999999999809,0.0035062538445761924,15.605634611439717
648,1582.84,456.1,89.0,326,21.27,1,Apollo,1000,4.0,2500,1583.02,460.1,1.0,0.18000000000006366,0.0003946502959878615,1.7066257399699085
649,1583.02,460.1,87.1,327,21.69,1,Apollo,1000,4.0,2500,1584.73,1752.3,1.0,1.7100000000000364,0.003716583351445417,16.131458378613686
650,1584.73,1752.3,91.3,-1866,15.45,1,Apollo,1000,4.0,2500,1585.13,466.9,1.0,0.40000000000009095,0.00022827141471214456,2.1706785367807253
651,1585.13,466.9,93.2,252,16.44,1,Apollo,1000,4.0,2500,1586.58,433.4,1.0,1.449999999999818,0.003105590062111412,13.563975155277802
652,1586.58,433.4,86.4,339,23.73,1,Apollo,1000,4.0,2500,1587.14,452.2,1.0,0.5600000000001728,0.001292108906322503,5.470272265806949
653,1587.14,452.2,85.5,301,24.44,1,Apollo,1000,4.0,2500,1588.66,3488.9,1.0,1.5199999999999818,0.0033613445378150855,14.483361344537641
654,1588.66,3488.9,93.1,-1866,17.96,1,Apollo,1000,4.0,2500,1590.5,405.7,1.0,1.8399999999999181,0.0005273868554558508,8.678467138639299
655,1590.5,405.7,85.9,385,24.1,1,Apollo,1000,4.0,2500,1591.16,359.3,1.0,0.6600000000000819,0.001626817845698994,6.707044614247812
656,1591.16,359.3,82.3,390,24.56,1,Apollo,1000,4.0,2500,1592.12,425.0,1.0,0.959999999999809,0.002671861953798522,10.51965488449554
657,1592.12,425.0,95.9,111,16.98,1,Apollo,1000,4.0,2500,1593.07,488.2,1.0,0.9500000000000455,0.0022352941176471655,9.388235294118097
658,1593.07,488.2,94.9,237,17.53,1,Apollo,1000,4.0,2500,1594.64,3488.9,1.0,1.5700000000001637,0.0032158951249491273,14.319737812373473
659,1594.64,3488.9,87.5,-1866,21.83,1,Apollo,1000,4.0,2500,1595.02,407.8,1.0,0.37999999999988177,0.0001089168505832445,1.7922921264576384
660,1595.02,407.8,86.8,358,22.8,1,Apollo,1000,4.0,2500,1596.54,429.4,1.0,1.5199999999999818,0.0037273173124079983,15.398293281019923
661,1596.54,429.4,88.1,411,23.59,1,Apollo,1000,4.0,2500,1597.12,430.5,1.0,0.5799999999999272,0.0013507219375871618,5.696804843967613
662,1597.12,430.5,90.2,375,23.61,1,Apollo,1000,4.0,2500,1598.64,429.9,1.0,1.5200000000002092,0.003530778164924992,14.906945412313316
663,1598.64,429.9,86.1,377,23.47,1,Apollo,1000,4.0,2500,1600.59,433.8,1.0,1.949999999999818,0.004535938590369431,19.13984647592285
664,1600.59,433.8,87.7,399,19.38,1,Apollo,1000,4.0,2500,1601.13,397.2,1.0,0.540000000000191,0.0012448132780087389,5.272033195022611
665,1601.13,397.2,88.2,415,23.82,1,Apollo,1000,4.0,2500,1602.63,3488.9,1.0,1.5,0.0037764350453172203,15.441087613293051
666,1602.63,3488.9,84.8,-1867,24.56,1,Apollo,1000,4.0,2500,1603.06,288.6,1.0,0.4299999999998363,0.00012324801513366283,2.028120037833502
667,1603.06,288.6,92.6,374,22.46,1,Apollo,1000,4.0,2500,1604.6,445.7,1.0,1.5399999999999636,0.0053361053361052095,19.500263340262876
668,1604.6,445.7,92.2,265,15.55,1,Apollo,1000,4.0,2500,1605.01,420.6,1.0,0.41000000000008185,0.0009199012788873274,3.939753197218646
669,1605.01,420.6,89.9,307,17.57,1,Apollo,1000,4.0,2500,1606.01,447.6,1.0,1.0,0.0023775558725630053,9.943889681407512
670,1606.01,447.6,93.4,270,17.44,1,Apollo,1000,4.0,2500,1607.15,460.2,1.0,1.1400000000001,0.002546916890080652,10.92729222520203
671,1607.15,460.2,94.7,277,15.04,1,Apollo,1000,4.0,2500,1608.52,434.4,1.0,1.3699999999998909,0.0029769665362883333,12.922416340720396
672,1608.52,434.4,86.2,336,20.28,1,Apollo,1000,4.0,2500,1609.09,435.5,1.0,0.5699999999999363,0.0013121546961324501,5.560386740330871
673,1609.09,435.5,87.4,283,20.55,1,Apollo,1000,4.0,2500,1609.63,3488.9,1.0,0.540000000000191,0.0012399540757754097,5.259885189439288
674,1609.63,3488.9,87.5,-1866,21.4,1,Apollo,1000,4.0,2500,1611.04,439.9,1.0,1.4099999999998545,0.0004041388403221229,6.650347100804725
675,1611.04,439.9,85.4,404,22.55,1,Apollo,1000,4.0,2500,1612.5,417.8,1.0,1.4600000000000364,0.0033189361218459567,14.137340304615037
676,1612.5,417.8,88.0,345,22.54,1,Apollo,1000,4.0,2500,1614.57,247.3,1.0,2.0699999999999363,0.004954523695547957,20.666309238869637
677,1614.57,247.3,83.3,311,25.4,1,Apollo,1000,4.0,2500,1616.55,149.7,1.0,1.9800000000000182,0.008006469874646252,27.9361746866157
678,1616.55,149.7,82.8,271,24.22,1,Apollo,1000,4.0,2500,1617.03,3488.9,1.0,0.4800000000000182,0.003206412825651424,9.936032064128632
679,1617.03,3488.9,72.9,-1866,37.68,1,Apollo,1000,4.0,2500,1618.52,181.2,1.0,1.490000000000009,0.00042706870360285736,7.0276717590071796
680,1618.52,181.2,81.7,324,26.24,1,Apollo,1000,4.0,2500,1619.02,188.2,1.0,0.5,0.0027593818984547464,8.898454746136867
681,1619.02,188.2,81.2,299,26.66,1,Apollo,1000,4.0,2500,1620.56,179.8,1.0,1.5399999999999636,0.008182784272050816,26.616960680126894
682,1620.56,179.8,78.5,296,29.46,1,Apollo,1000,4.0,2500,1621.01,172.9,1.0,0.4500000000000455,0.0025027808676309536,8.056952169077565
683,1621.01,172.9,78.6,328,29.09,1,Apollo,1000,4.0,2500,1622.57,332.8,1.0,1.5599999999999454,0.009022556390977128,28.796390977442602
684,1622.57,332.8,79.5,376,28.01,1,Apollo,1000,4.0,2500,1623.0,368.7,1.0,0.43000000000006366,0.001292067307692499,4.9501682692315025
685,1623.0,368.7,77.9,370,27.34,1,Apollo,1000,4.0,2500,1624.59,201.0,1.0,1.5899999999999181,0.004312449145646645,17.141122864116284
686,1624.59,201.0,80.1,311,26.06,1,Apollo,1000,4.0,2500,1625.14,208.3,1.0,0.5500000000001819,0.002736318407961104,9.040796019903487
687,1625.14,208.3,81.0,344,27.5,1,Apollo,1000,4.0,2500,1626.55,367.1,1.0,1.4099999999998545,0.006769083053287827,22.562707633218984
688,1626.55,367.1,87.8,293,18.11,1,Apollo,1000,4.0,2500,1627.23,406.3,1.0,0.6800000000000637,0.0018523563061837744,7.350890765459691
689,1627.23,406.3,89.2,341,25.3,1,Apollo,1000,4.0,2500,1628.72,413.9,1.0,1.490000000000009,0.0036672409549594123,15.128102387398567
690,1628.72,413.9,90.3,239,15.58,1,Apollo,1000,4.0,2500,1629.32,431.6,1.0,0.599999999999909,0.0014496255134088163,6.024063783521677
691,1629.32,431.6,87.1,323,20.08,1,Apollo,1000,4.0,2500,1630.63,451.2,1.0,1.3100000000001728,0.0030352177942543387,12.82804448563654
692,1630.63,451.2,89.7,223,16.71,1,Apollo,1000,4.0,2500,1631.01,431.0,1.0,0.37999999999988177,0.0008421985815600217,3.625496453899581
693,1631.01,431.0,88.9,220,17.74,1,Apollo,1000,4.0,2500,1632.55,437.6,1.0,1.5399999999999636,0.0035730858468676647,15.092714617169015
694,1632.55,437.6,95.7,185,11.21,1,Apollo,1000,4.0,2500,1633.68,3488.9,1.0,1.1300000000001091,0.0025822669104207246,10.97566727605225
695,1633.68,3488.9,83.9,-1867,20.96,1,Apollo,1000,4.0,2500,1635.26,481.6,1.0,1.5799999999999272,0.0004528647997936104,7.452161999483735
696,1635.26,481.6,96.9,291,20.15,1,Apollo,1000,4.0,2500,1636.32,475.7,1.0,1.0599999999999454,0.0022009966777407504,9.742491694351658
697,1636.32,475.7,95.5,242,12.66,1,Apollo,1000,4.0,2500,1637.18,511.4,1.0,0.8600000000001273,0.0018078620979611673,7.959655244903428
698,1637.18,511.4,93.3,175,14.97,1,Apollo,1000,4.0,2500,1638.68,475.3,1.0,1.5,0.002933124755572937,13.332811888932344
699,1638.68,475.3,88.5,266,17.04,1,Apollo,1000,4.0,2500,1640.67,459.7,1.0,1.990000000000009,0.004186829370923646,18.427073427309153
700,1640.67,459.7,88.1,317,18.17,1,Apollo,1000,4.0,2500,1641.1,496.4,1.0,0.4299999999998363,0.0009353926473783692,4.058481618445268
701,1641.1,496.4,87.3,290,20.1,1,Apollo,1000,4.0,2500,1642.48,3488.9,1.0,1.3800000000001091,0.002780016116035675,12.470040290089624
702,1642.48,3488.9,95.6,-1865,9.52,1,Apollo,1000,4.0,2500,1643.07,532.1,1.0,0.5899999999999181,0.00016910774169506668,2.782769354237339
703,1643.07,532.1,93.2,220,13.51,1,Apollo,1000,4.0,2500,1644.84,529.3,1.0,1.7699999999999818,0.003326442398045446,15.396105995113542
704,1644.84,529.3,85.6,304,20.91,1,Apollo,1000,4.0,2500,1645.03,522.4,1.0,0.19000000000005457,0.0003589646703193928,1.6574116757987003
705,1645.03,522.4,83.2,386,23.64,1,Apollo,1000,4.0,2500,1646.55,443.6,1.0,1.5199999999999818,0.0029096477794792915,13.354119448698157
706,1646.55,443.6,86.4,394,19.8,1,Apollo,1000,4.0,2500,1647.11,406.8,1.0,0.5599999999999454,0.0012623985572586685,5.3959963931464525
707,1647.11,406.8,87.8,295,21.21,1,Apollo,1000,4.0,2500,1648.33,389.8,1.0,1.2200000000000273,0.002999016715830942,12.377541789577464
708,1648.33,389.8,101.6,111,8.11,1,Apollo,1000,4.0,2500,1649.02,391.3,1.0,0.6900000000000546,0.0017701385325809506,7.185346331452594
709,1649.02,391.3,89.6,268,15.63,1,Apollo,1000,4.0,2500,1650.78,396.1,1.0,1.759999999999991,0.004497827753641684,18.284569384104174
710,1650.78,396.1,88.0,388,18.59,1,Apollo,1000,4.0,2500,1655.64,3488.9,1.0,4.860000000000127,0.012269628881595877,50.114072203990204
711,1655.64,3488.9,85.1,-1865,20.95,1,Apollo,1000,4.0,2500,1652.52,415.1,1.0,-3.1200000000001182,-0.0008942646679469512,-14.71566166986785
712,1652.52,415.1,83.3,430,21.1,1,Apollo,1000,4.0,2500,1653.02,392.4,1.0,0.5,0.0012045290291496024,5.011322572874006
713,1653.02,392.4,83.0,451,23.04,1,Apollo,1000,4.0,2500,1654.53,252.3,1.0,1.509999999999991,0.003848114169215064,15.660285423037623
714,1654.53,252.3,79.0,311,26.71,1,Apollo,1000,4.0,2500,1655.09,212.5,1.0,0.5599999999999454,0.0022195798652395776,7.788949663098726
715,1655.09,212.5,78.8,341,23.16,1,Apollo,1000,4.0,2500,1656.31,352.6,1.0,1.2200000000000273,0.005741176470588364,19.23294117647102
716,1656.31,352.6,84.1,413,22.96,1,Apollo,1000,4.0,2500,1657.04,377.8,1.0,0.7300000000000182,0.002070334656834992,8.095836642087551
717,1657.04,377.8,81.7,475,22.87,1,Apollo,1000,4.0,2500,1658.65,454.3,1.0,1.6100000000001273,0.004261514028586891,17.093785071467735
718,1658.65,454.3,91.5,246,15.43,1,Apollo,1000,4.0,2500,1659.9,3488.9,1.0,1.25,0.00275148580233326,11.87871450583315
719,1659.9,3488.9,96.9,-1865,13.9,1,Apollo,1000,4.0,2500,1661.01,389.8,1.0,1.1099999999999,0.0003181518530195477,5.235379632548469
720,1661.01,389.8,97.6,374,13.51,1,Apollo,1000,4.0,2500,1662.65,415.0,1.0,1.6400000000001,0.004207285787583633,17.07821446895948
721,1662.65,415.0,92.1,450,20.36,1,Apollo,1000,4.0,2500,1663.0,434.2,1.0,0.34999999999990905,0.0008433734939756844,3.5084337349388472
722,1663.0,434.2,90.5,354,16.83,1,Apollo,1000,4.0,2500,1664.51,402.7,1.0,1.509999999999991,0.003477660064486391,14.734150161215942
723,1664.51,402.7,90.7,379,18.76,1,Apollo,1000,4.0,2500,1665.16,476.1,1.0,0.650000000000091,0.001614104792649841,6.635261981624966
724,1665.16,476.1,92.2,434,18.71,1,Apollo,1000,4.0,2500,1666.83,550.1,1.0,1.6699999999998454,0.003507666456626434,15.449166141565467
725,1666.83,550.1,92.7,465,16.42,1,Apollo,1000,4.0,2500,1667.05,518.6,1.0,0.22000000000002728,0.0003999272859480591,1.879818214870257
726,1667.05,518.6,90.2,460,19.57,1,Apollo,1000,4.0,2500,1668.09,3488.9,1.0,1.0399999999999636,0.002005399151561827,9.173497878904422
727,1668.09,3488.9,90.2,-1865,19.78,1,Apollo,1000,4.0,2500,1668.84,3488.9,1.0,0.75,0.0002149674682564705,3.537418670641176
728,1668.84,3488.9,92.4,-1866,18.06,1,Apollo,1000,4.0,2500,1670.02,3488.9,1.0,1.1800000000000637,0.00033821548339019853,5.565538708475751
729,1670.02,3488.9,96.3,-1865,14.95,1,Apollo,1000,4.0,2500,1671.1,589.4,1.0,1.0799999999999272,0.0003095531542892967,5.093882885722951
730,1671.1,589.4,94.4,-1864,15.56,1,Apollo,1000,4.0,2500,1672.52,2423.9,1.0,1.4200000000000728,0.002409229725144338,11.703074312861137
731,1672.52,2423.9,87.5,-1864,20.41,1,Apollo,1000,4.0,2500,1673.36,557.1,1.0,0.8399999999999181,0.00034654895003915923,4.22637237509757
732,1673.36,557.1,87.1,561,23.43,1,Apollo,1000,4.0,2500,1674.66,564.5,1.0,1.300000000000182,0.002333512834320915,11.033782085803015
733,1674.66,564.5,89.7,454,23.8,1,Apollo,1000,4.0,2500,1676.64,550.6,1.0,1.9800000000000182,0.0035075287865367903,16.688821966342047
734,1676.64,550.6,88.5,552,25.21,1,Apollo,1000,4.0,2500,1677.46,575.8,1.0,0.8199999999999363,0.0014892844169995209,7.003211042498547
735,1677.46,575.8,90.1,528,18.48,1,Apollo,1000,4.0,2500,1678.76,563.6,1.0,1.2999999999999545,0.0022577283779089173,10.844320944772111
736,1678.76,563.6,98.6,310,14.07,1,Apollo,1000,4.0,2500,1679.01,631.4,1.0,0.25,0.00044357700496806243,2.108942512420156
737,1679.01,631.4,99.5,310,10.3,1,Apollo,1000,4.0,2500,1680.56,638.0,1.0,1.5499999999999545,0.0024548622109596997,12.337155527399068
738,1680.56,638.0,91.6,327,17.22,1,Apollo,1000,4.0,2500,1681.09,555.0,1.0,0.5299999999999727,0.0008307210031347535,4.196802507836775
739,1681.09,555.0,94.7,282,12.43,1,Apollo,1000,4.0,2500,1682.66,617.1,1.0,1.5700000000001637,0.0028288288288291236,13.352072072073465
740,1682.66,617.1,92.3,429,17.31,1,Apollo,1000,4.0,2500,1683.17,547.7,1.0,0.5099999999999909,0.0008264462809917208,4.106115702479265
741,1683.17,547.7,86.1,342,20.01,1,Apollo,1000,4.0,2500,1684.51,590.8,1.0,1.3399999999999181,0.0024465948511957604,11.476487127989074
742,1684.51,590.8,86.5,454,22.86,1,Apollo,1000,4.0,2500,1685.21,576.8,1.0,0.7000000000000455,0.0011848341232228259,5.762085308057246
743,1685.21,576.8,86.6,524,24.21,1,Apollo,1000,4.0,2500,1686.91,566.9,1.0,1.7000000000000455,0.0029472954230236573,14.168238557559325
744,1686.91,566.9,86.6,541,23.49,1,Apollo,1000,4.0,2500,1688.57,516.5,1.0,1.6599999999998545,0.002928206032809763,13.960515082023825
745,1688.57,516.5,84.3,499,24.23,1,Apollo,1000,4.0,2500,1689.0,506.7,1.0,0.43000000000006366,0.0008325266214909267,3.8013165537275717
746,1689.0,506.7,83.5,467,26.24,1,Apollo,1000,4.0,2500,1690.74,658.8,1.0,1.740000000000009,0.003433984606275921,15.54496151568984
747,1690.74,658.8,83.3,501,26.05,1,Apollo,1000,4.0,2500,1691.45,497.8,1.0,0.7100000000000364,0.001077717061323674,5.534292653309331
748,1691.45,497.8,85.3,552,23.47,1,Apollo,1000,4.0,2500,1692.96,598.8,1.0,1.509999999999991,0.003033346725592589,13.623366813981438
749,1692.96,598.8,85.3,499,23.53,1,Apollo,1000,4.0,2500,1693.23,562.5,1.0,0.2699999999999818,0.0004509018036071841,2.2072545090178872
750,1693.23,562.5,87.5,487,21.73,1,Apollo,1000,4.0,2500,1694.58,594.3,1.0,1.349999999999909,0.0023999999999998385,11.399999999999231
751,1694.58,594.3,87.6,416,19.64,1,Apollo,1000,4.0,2500,1695.1,639.3,1.0,0.5199999999999818,0.0008749789668517278,4.267447417129247
752,1695.1,639.3,86.0,446,20.75,1,Apollo,1000,4.0,2500,1696.74,589.8,1.0,1.6400000000001,0.002565305803222431,12.973264508056477
753,1696.74,589.8,89.7,428,18.59,1,Apollo,1000,4.0,2500,1697.28,679.5,1.0,0.5399999999999636,0.0009155645981688093,4.448911495421878
754,1697.28,679.5,90.1,434,18.15,1,Apollo,1000,4.0,2500,1698.66,584.3,1.0,1.3800000000001091,0.002030905077262854,10.597262693157571
755,1698.66,584.3,89.5,402,17.95,1,Apollo,1000,4.0,2500,1699.45,631.8,1.0,0.7899999999999636,0.00135204518226932,6.540112955673154
756,1699.45,631.8,87.3,405,21.02,1,Apollo,1000,4.0,2500,1700.69,546.4,1.0,1.240000000000009,0.001962646407090866,9.866616017727202
757,1700.69,546.4,85.7,464,21.96,1,Apollo,1000,4.0,2500,1701.17,553.3,1.0,0.4800000000000182,0.0008784773060029617,4.116193265007476
758,1701.17,553.3,83.7,568,24.67,1,Apollo,1000,4.0,2500,1703.03,641.2,1.0,1.8599999999999,0.003361648292065606,15.844120730163615
759,1703.03,641.2,93.8,446,15.66,1,Apollo,1000,4.0,2500,1704.41,577.4,1.0,1.3800000000001091,0.0021522145976296146,10.900536494074473
760,1704.41,577.4,86.5,448,21.23,1,Apollo,1000,4.0,2500,1705.15,576.2,1.0,0.7400000000000091,0.0012816072047107882,6.1640180117770065
761,1705.15,576.2,84.6,551,25.91,1,Apollo,1000,4.0,2500,1706.65,546.4,1.0,1.5,0.0026032627559875042,12.50815688996876
762,1706.65,546.4,89.7,498,19.08,1,Apollo,1000,4.0,2500,1707.15,593.7,1.0,0.5,0.0009150805270863836,4.287701317715959
763,1707.15,593.7,91.6,440,15.97,1,Apollo,1000,4.0,2500,1708.67,634.9,1.0,1.5199999999999818,0.0025602155971028834,12.480538992757136
764,1708.67,634.9,92.3,367,16.34,1,Apollo,1000,4.0,2500,1709.18,615.0,1.0,0.5099999999999909,0.0008032761064734461,4.048190266183578
765,1709.18,615.0,91.6,436,15.11,1,Apollo,1000,4.0,2500,1710.72,611.2,1.0,1.5399999999999636,0.0025040650406503474,12.420162601625723
766,1710.72,611.2,92.2,352,16.06,1,Apollo,1000,4.0,2500,1712.23,609.5,1.0,1.509999999999991,0.00247054973821988,12.216374345549664
767,1712.23,609.5,99.6,328,7.65,1,Apollo,1000,4.0,2500,1714.54,579.4,1.0,2.3099999999999454,0.0037899917965544634,18.71497949138594
768,1714.54,579.4,90.8,415,16.28,1,Apollo,1000,4.0,2500,1715.31,619.2,1.0,0.7699999999999818,0.0013289609941318293,6.4024024853295005
769,1715.31,619.2,87.9,434,16.59,1,Apollo,1000,4.0,2500,1716.62,576.6,1.0,1.3099999999999454,0.0021156330749353123,10.529082687338063
770,1716.62,576.6,94.7,307,11.98,1,Apollo,1000,4.0,2500,1717.4,632.5,1.0,0.7800000000002001,0.0013527575442251127,6.501893860563582
771,1717.4,632.5,94.0,321,10.7,1,Apollo,1000,4.0,2500,1718.2,578.5,1.0,0.7999999999999545,0.00126482213438728,6.362055335968018
772,1718.2,578.5,98.5,299,5.58,1,Apollo,1000,4.0,2500,1718.78,587.3,1.0,0.5799999999999272,0.0010025929127051466,4.826482281762575
773,1718.78,587.3,91.8,443,13.24,1,Apollo,1000,4.0,2500,1720.56,646.5,1.0,1.7799999999999727,0.0030308190022134735,14.697047505533575
774,1720.56,646.5,97.0,353,8.75,1,Apollo,1000,4.0,2500,1721.18,658.9,1.0,0.6200000000001182,0.0009590100541378474,4.877525135345092
775,1721.18,658.9,96.6,271,6.26,1,Apollo,1000,4.0,2500,1721.8,752.3,1.0,0.6199999999998909,0.0009409622097433462,4.832405524357929
776,1721.8,752.3,99.1,208,6.21,1,Apollo,1000,4.0,2500,1723.12,657.7,1.0,1.3199999999999363,0.0017546191678850676,9.666547919712414
777,1723.12,657.7,99.8,300,6.16,1,Apollo,1000,4.0,2500,1723.76,856.6,1.0,0.6400000000001,0.0009730880340582332,4.992720085145983
778,1723.76,856.6,100.1,294,6.14,1,Apollo,1000,4.0,2500,1724.79,818.0,1.0,1.0299999999999727,0.0012024282045295035,7.1260705113236495
779,1724.79,818.0,91.9,377,16.47,1,Apollo,1000,4.0,2500,1726.55,704.0,1.0,1.759999999999991,0.0021515892420537787,12.41897310513441
780,1726.55,704.0,101.3,191,3.95,1,Apollo,1000,4.0,2500,1727.1,755.1,1.0,0.5499999999999545,0.0007812499999999354,4.1531249999996565
781,1727.1,755.1,103.0,234,3.88,1,Apollo,1000,4.0,2500,1728.24,613.7,1.0,1.1400000000001,0.001509733810091511,8.334334525229178
782,1728.24,613.7,99.9,195,5.33,1,Apollo,1000,4.0,2500,1729.08,681.9,1.0,0.8399999999999181,0.0013687469447611505,6.781867361902549
783,1729.08,681.9,101.6,225,4.55,1,Apollo,1000,4.0,2500,1730.67,700.3,1.0,1.5900000000001455,0.002331720193576984,12.189300483943043
784,1730.67,700.3,99.6,279,5.72,1,Apollo,1000,4.0,2500,1732.29,637.1,1.0,1.6199999999998909,0.002313294302441655,12.2632357561037
785,1732.29,637.1,88.3,358,16.45,1,Apollo,1000,4.0,2500,1733.2,665.7,1.0,0.9100000000000819,0.0014283471982421627,7.210867995605734
786,1733.2,665.7,91.4,434,17.37,1,Apollo,1000,4.0,2500,1734.67,528.8,1.0,1.4700000000000273,0.00220820189274452,11.40050473186141
787,1734.67,528.8,99.5,256,5.41,1,Apollo,1000,4.0,2500,1736.52,672.4,1.0,1.849999999999909,0.003498487140695744,16.146217851738996
788,1736.52,672.4,90.3,434,17.54,1,Apollo,1000,4.0,2500,1737.51,708.2,1.0,0.9900000000000091,0.001472337894110662,7.6408447352766915
789,1737.51,708.2,91.8,351,10.83,1,Apollo,1000,4.0,2500,1738.2,770.4,1.0,0.6900000000000546,0.0009743010449026468,5.195752612256835
790,1738.2,770.4,94.6,356,10.63,1,Apollo,1000,4.0,2500,1739.18,586.9,1.0,0.9800000000000182,0.0012720664589823704,7.100166147455999
791,1739.18,586.9,92.7,374,10.41,1,Apollo,1000,4.0,2500,1740.53,730.2,1.0,1.349999999999909,0.002300221502811227,11.150553757027705
792,1740.53,730.2,96.3,301,9.28,1,Apollo,1000,4.0,2500,1741.2,755.2,1.0,0.6700000000000728,0.0009175568337442793,4.973892084360989
793,1741.2,755.2,95.3,309,10.8,1,Apollo,1000,4.0,2500,1742.52,558.8,1.0,1.3199999999999363,0.001747881355932119,9.649703389830043
794,1742.52,558.8,79.6,466,27.42,1,Apollo,1000,4.0,2500,1743.0,342.1,1.0,0.4800000000000182,0.0008589835361489231,4.06745884037238
795,1743.0,342.1,81.7,528,24.98,1,Apollo,1000,4.0,2500,1744.62,455.6,1.0,1.6199999999998909,0.004735457468576121,18.318643671439865
796,1744.62,455.6,100.1,304,5.23,1,Apollo,1000,4.0,2500,1745.02,490.8,1.0,0.40000000000009095,0.0008779631255489266,3.79490781387268
797,1745.02,490.8,101.0,307,5.24,1,Apollo,1000,4.0,2500,1746.58,507.9,1.0,1.5599999999999454,0.003178484107579351,14.186210268948159
798,1746.58,507.9,95.7,371,6.65,1,Apollo,1000,4.0,2500,1747.04,549.4,1.0,0.4600000000000364,0.0009056900964757558,4.1042252411895355
799,1747.04,549.4,93.5,428,11.7,1,Apollo,1000,4.0,2500,1748.69,554.9,1.0,1.650000000000091,0.0030032763014198965,14.108190753550105
800,1748.69,554.9,83.3,522,20.07,1,Apollo,1000,4.0,2500,1750.53,532.7,1.0,1.8399999999999181,0.0033159127770768034,15.64978194269168
801,1750.53,532.7,79.9,612,25.01,1,Apollo,1000,4.0,2500,1751.28,544.6,1.0,0.75,0.0014079219072648769,6.519804768162192
802,1751.28,544.6,78.9,617,23.63,1,Apollo,1000,4.0,2500,1752.65,505.8,1.0,1.3700000000001182,0.0025156077855308817,11.769019463827677
803,1752.65,505.8,78.5,578,24.69,1,Apollo,1000,4.0,2500,1753.09,544.6,1.0,0.4399999999998272,0.0008699090549620941,3.934772637404544
804,1753.09,544.6,80.5,636,24.83,1,Apollo,1000,4.0,2500,1754.63,479.0,1.0,1.540000000000191,0.0028277634961443093,13.229408740361537
805,1754.63,479.0,80.6,541,24.17,1,Apollo,1000,4.0,2500,1755.03,0.0,1.0,0.3999999999998636,0.0008350730688932434,3.6876826722325626
806,1755.03,0.0,111.2,121,0.83,1,Apollo,1000,4.0,2500,1756.65,473.3,1.0,1.6200000000001182,0.0,6.480000000000473
807,1756.65,473.3,95.5,406,21.67,1,Apollo,1000,4.0,2500,1758.72,458.4,1.0,2.0699999999999363,0.004373547432917676,19.213868582293934
808,1758.72,458.4,89.3,549,24.56,1,Apollo,1000,4.0,2500,1759.34,454.4,1.0,0.6199999999998909,0.0013525305410119785,5.86132635252951
809,1759.34,454.4,84.9,538,26.44,1,Apollo,1000,4.0,2500,1760.06,547.1,1.0,0.7200000000000273,0.001584507042253581,6.841267605634062
810,1760.06,547.1,91.0,472,20.2,1,Apollo,1000,4.0,2500,1761.12,436.8,1.0,1.0599999999999454,0.0019374885761285785,9.083721440321227
811,1761.12,436.8,88.5,518,24.89,1,Apollo,1000,4.0,2500,1762.62,512.8,1.0,1.5,0.003434065934065934,14.585164835164836
812,1762.62,512.8,91.0,555,23.86,1,Apollo,1000,4.0,2500,1764.63,456.2,1.0,2.0100000000002183,0.003919656786271877,17.839141965680568
813,1764.63,456.2,89.1,419,24.93,1,Apollo,1000,4.0,2500,1765.07,501.5,1.0,0.4399999999998272,0.0009644892590965086,4.17122314774058
814,1765.07,501.5,92.8,477,26.01,1,Apollo,1000,4.0,2500,1766.59,471.3,1.0,1.5199999999999818,0.003030907278165467,13.657268195413595
815,1766.59,471.3,90.4,450,21.5,1,Apollo,1000,4.0,2500,1767.01,468.8,1.0,0.42000000000007276,0.0008911521323998998,3.9078803310000407
816,1767.01,468.8,91.6,467,21.78,1,Apollo,1000,4.0,2500,1768.09,519.6,1.0,1.0799999999999272,0.0023037542662114486,10.079385665528331
817,1768.09,519.6,91.5,547,21.57,1,Apollo,1000,4.0,2500,1769.21,533.1,1.0,1.1200000000001182,0.0021555042340264015,9.868760585066477
818,1769.21,533.1,90.0,487,20.95,1,Apollo,1000,4.0,2500,1770.56,490.8,1.0,1.349999999999909,0.0025323579065839597,11.730894766459535
819,1770.56,490.8,86.1,515,24.06,1,Apollo,1000,4.0,2500,1771.01,494.0,1.0,0.4500000000000455,0.0009168704156480143,4.0921760391202175
820,1771.01,494.0,89.0,446,20.17,1,Apollo,1000,4.0,2500,1772.54,506.4,1.0,1.5299999999999727,0.003097165991902779,13.862914979756837
821,1772.54,506.4,87.8,495,23.36,1,Apollo,1000,4.0,2500,1773.36,471.2,1.0,0.8199999999999363,0.001619273301737631,7.328183254343823
822,1773.36,471.2,90.0,589,23.83,1,Apollo,1000,4.0,2500,1774.14,433.2,1.0,0.7800000000002001,0.001655348047538625,7.258370118847363
823,1774.14,433.2,86.8,506,23.57,1,Apollo,1000,4.0,2500,1775.15,455.6,1.0,1.009999999999991,0.0023314866112649837,9.868716528162423
824,1775.15,455.6,84.8,486,26.14,1,Apollo,1000,4.0,2500,1776.79,507.9,1.0,1.6399999999998727,0.0035996488147495005,15.559122036873243
825,1776.79,507.9,100.4,337,8.91,1,Apollo,1000,4.0,2500,1777.0,504.0,1.0,0.21000000000003638,0.0004134672179563622,1.873668044891051
826,1777.0,504.0,96.4,235,10.49,1,Apollo,1000,4.0,2500,1778.6,453.1,1.0,1.599999999999909,0.003174603174602994,14.336507936507122
827,1778.6,453.1,89.1,548,23.27,1,Apollo,1000,4.0,2500,1779.01,479.6,1.0,0.41000000000008185,0.0009048775104835177,3.9021937762091214
828,1779.01,479.6,90.8,487,20.69,1,Apollo,1000,4.0,2500,1779.6,488.5,1.0,0.5899999999999181,0.001230191826521931,5.4354795663045
829,1779.6,488.5,84.3,533,26.02,1,Apollo,1000,4.0,2500,1782.68,428.9,1.0,3.0800000000001546,0.006305015353122118,28.082538382805915
830,1782.68,428.9,95.1,398,13.41,1,Apollo,1000,4.0,2500,1783.08,457.9,1.0,0.3999999999998636,0.0009326183259497869,3.9315458148739215
831,1783.08,457.9,99.0,335,14.67,1,Apollo,1000,4.0,2500,1784.56,470.4,1.0,1.4800000000000182,0.0032321467569338684,14.000366892334744
832,1784.56,470.4,93.8,340,19.05,1,Apollo,1000,4.0,2500,1785.2,487.2,1.0,0.6400000000001,0.0013605442176872877,5.9613605442186195
833,1785.2,487.2,88.8,413,21.06,1,Apollo,1000,4.0,2500,1786.64,484.3,1.0,1.4400000000000546,0.002955665024630654,13.149162561576853
834,1786.64,484.3,100.0,316,8.11,1,Apollo,1000,4.0,2500,1787.25,452.2,1.0,0.6099999999999,0.0012595498657854633,5.588874664463258
835,1787.25,452.2,98.0,399,14.45,1,Apollo,1000,4.0,2500,1788.53,373.7,1.0,1.2799999999999727,0.0028306059265810987,12.196514816452638
836,1788.53,373.7,85.7,531,24.03,1,Apollo,1000,4.0,2500,1789.05,410.2,1.0,0.5199999999999818,0.0013914905004013428,5.558726251003284
837,1789.05,410.2,83.9,491,24.65,1,Apollo,1000,4.0,2500,1790.53,420.5,1.0,1.4800000000000182,0.003607996099463721,14.939990248659376
838,1790.53,420.5,86.3,495,24.56,1,Apollo,1000,4.0,2500,1791.12,433.9,1.0,0.5899999999999181,0.0014030915576692465,5.867728894172789
839,1791.12,433.9,84.4,468,25.62,1,Apollo,1000,4.0,2500,1792.51,484.9,1.0,1.3900000000001,0.0032035031113162023,13.568757778290905
840,1792.51,484.9,99.8,378,12.42,1,Apollo,1000,4.0,2500,1793.13,454.8,1.0,0.6200000000001182,0.0012786141472470988,5.67653536811822
841,1793.13,454.8,94.0,346,14.85,1,Apollo,1000,4.0,2500,1794.77,461.7,1.0,1.6399999999998727,0.003605980650835252,15.574951627087621
842,1794.77,461.7,87.3,432,22.39,1,Apollo,1000,4.0,2500,1795.22,464.6,1.0,0.4500000000000455,0.00097465886939581,4.2366471734897075
843,1795.22,464.6,88.8,553,23.13,1,Apollo,1000,4.0,2500,1796.63,487.9,1.0,1.4100000000000819,0.0030348687042619066,13.227171760655093
844,1796.63,487.9,85.0,508,23.12,1,Apollo,1000,4.0,2500,1797.0,469.6,1.0,0.36999999999989086,0.0007583521213361157,3.375880303339853
845,1797.0,469.6,84.1,485,24.4,1,Apollo,1000,4.0,2500,1798.67,466.5,1.0,1.6700000000000728,0.0035562180579217905,15.570545144804766
846,1798.67,466.5,84.9,519,23.12,1,Apollo,1000,4.0,2500,1799.08,465.9,1.0,0.4099999999998545,0.0008788853161840397,3.837213290459517
847,1799.08,465.9,86.6,579,22.98,1,Apollo,1000,4.0,2500,1800.52,456.0,1.0,1.4400000000000546,0.003090792015454077,13.48698003863541
848,1800.52,456.0,86.2,586,23.63,1,Apollo,1000,4.0,2500,1801.14,503.4,1.0,0.6200000000001182,0.0013596491228072768,5.879122807018665
849,1801.14,503.4,84.6,520,24.12,1,Apollo,1000,4.0,2500,1802.59,464.3,1.0,1.449999999999818,0.0028804131903055587,13.00103297576317
850,1802.59,464.3,87.9,534,22.21,1,Apollo,1000,4.0,2500,1803.2,497.5,1.0,0.6100000000001273,0.0013138057290547648,5.724514322637422
851,1803.2,497.5,85.5,535,22.81,1,Apollo,1000,4.0,2500,1804.69,437.8,1.0,1.490000000000009,0.0029949748743718775,13.44743718592973
852,1804.69,437.8,85.1,543,22.91,1,Apollo,1000,4.0,2500,1805.09,492.2,1.0,0.3999999999998636,0.0009136592051161798,3.884148012789904
853,1805.09,492.2,86.4,520,23.21,1,Apollo,1000,4.0,2500,1806.17,446.7,1.0,1.0800000000001546,0.0021942299878101473,9.805574969525987
854,1806.17,446.7,100.3,277,7.41,1,Apollo,1000,4.0,2500,1807.2,462.3,1.0,1.0299999999999727,0.0023057980747704784,9.884495186926086
855,1807.2,462.3,99.0,361,13.52,1,Apollo,1000,4.0,2500,1808.86,459.1,1.0,1.6599999999998545,0.0035907419424612897,15.616854856152642
856,1808.86,459.1,96.8,285,10.02,1,Apollo,1000,4.0,2500,1809.08,464.2,1.0,0.22000000000002728,0.0004791984317142829,2.0779960792858163
857,1809.08,464.2,97.4,341,11.54,1,Apollo,1000,4.0,2500,1810.12,462.6,1.0,1.0399999999999636,0.0022404136148211195,9.761034037052653
858,1810.12,462.6,96.0,300,12.32,1,Apollo,1000,4.0,2500,1811.0,445.3,1.0,0.8800000000001091,0.0019022913964550565,8.275728491138079
859,1811.0,445.3,90.6,478,16.24,1,Apollo,1000,4.0,2500,1812.7,466.8,1.0,1.7000000000000455,0.0038176510217831695,16.344127554458105
860,1812.7,466.8,90.2,521,19.03,1,Apollo,1000,4.0,2500,1814.57,504.8,1.0,1.8699999999998909,0.004005998286203708,17.494995715508832
861,1814.57,504.8,89.1,476,18.27,1,Apollo,1000,4.0,2500,1815.19,463.2,1.0,0.6200000000001182,0.0012282091917593468,5.55052297939884
862,1815.19,463.2,87.1,452,18.16,1,Apollo,1000,4.0,2500,1816.67,475.9,1.0,1.4800000000000182,0.003195164075993131,13.9079101899829
863,1816.67,475.9,89.5,529,21.94,1,Apollo,1000,4.0,2500,1817.14,458.5,1.0,0.4700000000000273,0.0009876024374869243,4.34900609371742
864,1817.14,458.5,86.7,521,20.34,1,Apollo,1000,4.0,2500,1818.58,456.4,1.0,1.4399999999998272,0.0031406761177749775,13.611690294436752
865,1818.58,456.4,86.3,562,20.56,1,Apollo,1000,4.0,2500,1819.2,498.9,1.0,0.6200000000001182,0.0013584574934270776,5.876143733568167
866,1819.2,498.9,84.8,463,22.91,1,Apollo,1000,4.0,2500,1820.03,460.5,1.0,0.8299999999999272,0.0016636600521145065,7.4791501302859755
867,1820.03,460.5,85.3,451,20.88,1,Apollo,1000,4.0,2500,1821.07,459.0,1.0,1.0399999999999636,0.00225841476655801,9.80603691639488
868,1821.07,459.0,84.8,484,23.42,1,Apollo,1000,4.0,2500,1822.11,504.1,1.0,1.0399999999999636,0.0022657952069715984,9.824488017428852
869,1822.11,504.1,83.4,578,23.83,1,Apollo,1000,4.0,2500,1823.16,504.7,1.0,1.050000000000182,0.0020829200555448953,9.407300138862965
870,1823.16,504.7,89.8,431,21.32,1,Apollo,1000,4.0,2500,1824.64,478.0,1.0,1.4800000000000182,0.0029324351099663526,13.251087774915955
871,1824.64,478.0,97.9,356,8.67,1,Apollo,1000,4.0,2500,1825.05,462.5,1.0,0.4099999999998545,0.0008577405857737542,3.7843514644338034
872,1825.05,462.5,90.4,390,15.55,1,Apollo,1000,4.0,2500,1826.51,498.9,1.0,1.4600000000000364,0.0031567567567568353,13.731891891892234
873,1826.51,498.9,89.3,377,18.75,1,Apollo,1000,4.0,2500,1827.18,435.7,1.0,0.6700000000000728,0.0013429544998999252,6.037386249750104
874,1827.18,435.7,86.4,465,20.37,1,Apollo,1000,4.0,2500,1828.87,470.3,1.0,1.6899999999998272,0.0038788156988749764,16.45703924718675
875,1828.87,470.3,89.4,409,19.22,1,Apollo,1000,4.0,2500,1830.56,472.0,1.0,1.6900000000000546,0.0035934509887307134,15.743627471827002
876,1830.56,472.0,85.9,482,18.29,1,Apollo,1000,4.0,2500,1831.09,473.0,1.0,0.5299999999999727,0.0011228813559321456,4.927203389830255
877,1831.09,473.0,83.6,490,22.81,1,Apollo,1000,4.0,2500,1832.71,484.2,1.0,1.6200000000001182,0.003424947145877629,15.042367864694546
878,1832.71,484.2,87.4,507,19.35,1,Apollo,1000,4.0,2500,1833.34,515.6,1.0,0.6299999999998818,0.0013011152416354435,5.772788104088136
879,1833.34,515.6,86.7,481,20.02,1,Apollo,1000,4.0,2500,1834.6,500.4,1.0,1.259999999999991,0.00244375484871992,11.149387121799764
880,1834.6,500.4,88.1,531,18.83,1,Apollo,1000,4.0,2500,1835.01,462.9,1.0,0.41000000000008185,0.0008193445243806592,3.6883613109519753
881,1835.01,462.9,88.6,525,18.66,1,Apollo,1000,4.0,2500,1835.64,502.5,1.0,0.6300000000001091,0.001360985093973016,5.922462734932977
882,1835.64,502.5,83.5,509,22.09,1,Apollo,1000,4.0,2500,1837.14,534.3,1.0,1.5,0.0029850746268656717,13.46268656716418
883,1837.14,534.3,83.2,549,20.95,1,Apollo,1000,4.0,2500,1838.62,469.0,1.0,1.4799999999997908,0.0027699794123147875,12.844948530786132
884,1838.62,469.0,87.4,563,20.88,1,Apollo,1000,4.0,2500,1839.04,506.6,1.0,0.42000000000007276,0.0008955223880598567,3.9188059701499327
885,1839.04,506.6,82.7,491,21.98,1,Apollo,1000,4.0,2500,1840.5,338.7,1.0,1.4600000000000364,0.0028819581523885436,13.044895380971504
886,1840.5,338.7,82.7,489,25.75,1,Apollo,1000,4.0,2500,1841.11,429.7,1.0,0.6099999999999,0.001801003838204606,6.9425095955111145
887,1841.11,429.7,86.4,609,21.6,1,Apollo,1000,4.0,2500,1842.15,464.2,1.0,1.040000000000191,0.002420293227833817,10.210733069585306
888,1842.15,464.2,85.9,544,20.92,1,Apollo,1000,4.0,2500,1843.01,483.5,1.0,0.8599999999999,0.0018526497199480825,8.071624299869807
889,1843.01,483.5,97.9,460,6.1,1,Apollo,1000,4.0,2500,1844.51,460.6,1.0,1.5,0.0031023784901758017,13.755946225439505
890,1844.51,460.6,107.8,218,0.47,1,Apollo,1000,4.0,2500,1845.14,496.2,1.0,0.6300000000001091,0.0013677811550154345,5.939452887539023
891,1845.14,496.2,98.6,238,5.11,1,Apollo,1000,4.0,2500,1846.19,432.6,1.0,1.0499999999999545,0.0021160822249092193,9.490205562272866
892,1846.19,432.6,103.3,329,3.02,1,Apollo,1000,4.0,2500,1847.22,494.2,1.0,1.0299999999999727,0.002380952380952318,10.072380952380685
893,1847.22,494.2,97.8,319,7.95,1,Apollo,1000,4.0,2500,1848.5,475.3,1.0,1.2799999999999727,0.00259004451639007,11.595111290975066
894,1848.5,475.3,94.3,438,16.4,1,Apollo,1000,4.0,2500,1850.52,272.3,1.0,2.019999999999982,0.004249947401641031,18.704868504102507
895,1850.52,272.3,116.8,99,0.09,1,Apollo,1000,4.0,2500,1851.14,274.8,1.0,0.6200000000001182,0.0022769004774150503,8.172251193538099
896,1851.14,274.8,108.1,106,1.13,1,Apollo,1000,4.0,2500,1852.52,442.1,1.0,1.3799999999998818,0.00502183406113494,18.074585152836878
897,1852.52,442.1,94.4,416,19.54,1,Apollo,1000,4.0,2500,1853.14,433.8,1.0,0.6200000000001182,0.0014023976475913101,5.9859941189787484
898,1853.14,433.8,92.2,372,21.14,1,Apollo,1000,4.0,2500,1854.52,445.5,1.0,1.3799999999998818,0.0031811894882431578,13.47297372060742
899,1854.52,445.5,92.0,457,21.85,1,Apollo,1000,4.0,2500,1855.17,503.3,1.0,0.650000000000091,0.0014590347923683297,6.247586980921188
900,1855.17,503.3,93.2,506,23.46,1,Apollo,1000,4.0,2500,1856.6,452.8,1.0,1.4299999999998363,0.0028412477647523074,12.823119411880114
901,1856.6,452.8,91.8,502,23.85,1,Apollo,1000,4.0,2500,1857.01,490.1,1.0,0.41000000000008185,0.0009054770318023009,3.90369257950608
902,1857.01,490.1,93.2,415,22.39,1,Apollo,1000,4.0,2500,1858.04,457.7,1.0,1.0299999999999727,0.002101611915935468,9.37402978983856
903,1858.04,457.7,92.9,437,21.92,1,Apollo,1000,4.0,2500,1860.54,461.0,1.0,2.5,0.005462093074065983,23.655232685164957
904,1860.54,461.0,91.9,454,22.72,1,Apollo,1000,4.0,2500,1861.15,456.8,1.0,0.6100000000001273,0.0013232104121477816,5.748026030369964
905,1861.15,456.8,92.0,438,22.95,1,Apollo,1000,4.0,2500,1862.11,415.5,1.0,0.959999999999809,0.002101576182136184,9.093940455339697
906,1862.11,415.5,91.2,440,25.06,1,Apollo,1000,4.0,2500,1863.13,435.9,1.0,1.0200000000002092,0.0024548736462098896,10.217184115525562
907,1863.13,435.9,96.7,438,20.39,1,Apollo,1000,4.0,2500,1864.08,472.0,1.0,0.9499999999998181,0.0021793989447116725,9.248497361778455
908,1864.08,472.0,106.9,292,10.55,1,Apollo,1000,4.0,2500,1866.52,87.6,1.0,2.4400000000000546,0.005169491525423844,22.68372881355983
909,1866.52,87.6,108.6,120,5.03,1,Apollo,1000,4.0,2500,1867.01,98.4,1.0,0.4900000000000091,0.005593607305936177,15.944018264840478
910,1867.01,98.4,107.1,88,7.12,1,Apollo,1000,4.0,2500,1868.53,91.1,1.0,1.5199999999999818,0.01544715447154453,44.69788617886125
911,1868.53,91.1,104.9,214,8.63,1,Apollo,1000,4.0,2500,1869.02,99.8,1.0,0.4900000000000091,0.005378704720087915,15.406761800219824
912,1869.02,99.8,105.9,167,6.26,1,Apollo,1000,4.0,2500,1870.51,117.6,1.0,1.490000000000009,0.014929859719438969,43.28464929859746
913,1870.51,117.6,99.8,214,12.97,1,Apollo,1000,4.0,2500,1871.02,117.5,1.0,0.5099999999999909,0.004336734693877474,12.881836734693648
914,1871.02,117.5,102.6,80,11.22,1,Apollo,1000,4.0,2500,1872.52,111.3,1.0,1.5,0.012765957446808512,37.91489361702128
915,1872.52,111.3,103.9,193,11.39,1,Apollo,1000,4.0,2500,1873.08,107.4,1.0,0.5599999999999454,0.005031446540880013,14.818616352199815
