,BIT_DEPTH,cost
0,216.63,5000.6
1,217.03,3.194999999999993
2,219.16,2.1000000000000085
3,220.56,0.6599999999999966
4,221.0,2.325000000000017
5,222.55,1.0049999999999812
6,223.22,1.9799999999999898
7,224.54,0.825000000000017
8,225.09,2.1450000000000102
9,226.52,0.7649999999999864
10,227.03,2.5949999999999847
11,228.76,0.6599999999999966
12,229.2,1.9800000000000324
13,230.52,0.8099999999999881
14,231.06,2.190000000000012
15,232.52,0.8400000000000034
16,233.08,2.1299999999999812
17,234.5,0.8700000000000188
18,235.08,2.1899999999999693
19,236.54,0.75
20,237.04,2.265000000000029
21,238.55,0.7649999999999864
22,239.06,2.414999999999978
23,240.67,0.6750000000000256
24,241.12,2.489999999999995
25,242.78,0.7199999999999847
26,243.26,1.875
27,244.51,0.8100000000000307
28,245.05,2.1899999999999693
29,246.51,0.75
30,247.01,2.3400000000000034
31,248.57,0.6599999999999966
32,249.01,3.075000000000017
33,251.06,2.2049999999999983
34,252.53,0.7049999999999983
35,253.0,2.2950000000000017
36,254.53,0.7199999999999847
37,255.01,2.3400000000000034
38,256.57,0.7200000000000273
39,257.05,2.2649999999999864
40,258.56,0.6599999999999966
41,259.0,2.2799999999999727
42,260.52,0.9300000000000068
43,261.14,2.0400000000000205
44,262.5,1.0050000000000239
45,263.17,2.024999999999949
46,264.52,0.780000000000058
47,265.04,2.3099999999999454
48,266.58,0.6450000000000102
49,267.01,2.25
50,268.51,0.7950000000000443
51,269.04,2.3849999999999625
52,270.63,0.6899999999999693
53,271.09,1.4400000000000546
54,272.05,1.3649999999999523
55,272.96,2.6100000000000136
56,274.7,0.7200000000000273
57,275.18,2.0849999999999795
58,276.57,0.7200000000000273
59,277.05,2.2799999999999727
60,278.57,2.9099999999999966
61,280.51,0.7350000000000136
62,281.0,2.400000000000034
63,282.6,0.644999999999925
64,283.03,2.25
65,284.53,1.0650000000000546
66,285.24,2.0099999999999625
67,286.58,0.780000000000058
68,287.1,2.2649999999999864
69,288.61,0.7649999999999864
70,289.12,2.25
71,290.62,0.7949999999999591
72,291.15,2.2950000000000443
73,292.68,0.75
74,293.18,2.1599999999999966
75,294.62,0.7799999999999727
76,295.14,2.1599999999999966
77,296.58,0.674999999999983
78,297.03,2.2200000000000273
79,298.51,0.75
80,299.01,2.505000000000024
81,300.68,0.6149999999999523
82,301.09,2.130000000000024
83,302.51,0.9449999999999932
84,303.14,2.2200000000000273
85,304.62,0.7649999999999864
86,305.13,1.349999999999966
87,306.03,1.530000000000058
88,307.05,2.3099999999999454
89,308.59,0.7650000000000716
90,309.1,2.3099999999999454
91,310.64,0.780000000000058
92,311.16,2.0849999999999795
93,312.55,0.7949999999999591
94,313.08,2.3100000000000307
95,314.62,0.674999999999983
96,315.07,2.205000000000041
97,316.54,0.8099999999999454
98,317.08,2.444999999999993
99,318.71,0.47999999999998977
100,319.03,2.1450000000000102
101,320.46,0.8100000000000307
102,321.0,2.6549999999999727
103,322.77,0.825000000000017
104,323.32,1.830000000000041
105,324.54,0.8249999999999318
106,325.09,2.175000000000068
107,326.54,2.1899999999999693
108,328.0,1.7849999999999966
109,329.19,1.8450000000000273
110,330.42,1.169999999999959
111,331.2,2.1450000000000102
112,332.63,1.0950000000000273
113,333.36,1.844999999999942
114,334.59,0.6450000000000102
115,335.02,2.175000000000068
116,336.47,1.0349999999999966
117,337.16,2.924999999999983
118,339.11,2.024999999999949
119,340.46,0.8850000000000477
120,341.05,2.4899999999999523
121,342.71,0.5400000000000205
122,343.07,2.2200000000000273
123,344.55,2.3849999999999625
124,346.14,1.650000000000034
125,347.24,2.369999999999976
126,348.82,0.3300000000000409
127,349.04,2.7299999999999898
128,350.86,0.344999999999942
129,351.09,2.055000000000007
130,352.46,0.8549999999999898
131,353.03,2.2350000000000136
132,354.52,2.9700000000000273
133,356.5,3.330000000000041
134,358.72,0.6599999999999966
135,359.16,0.5699999999999932
136,359.54,1.8899999999999864
137,360.8,2.3849999999999625
138,362.39,1.7550000000000239
139,363.56,3.3899999999999864
140,365.82,2.1150000000000375
141,367.23,2.2350000000000136
142,368.72,0.4199999999999591
143,369.0,1.5
144,370.0,1.169999999999959
145,370.78,1.5150000000000716
146,371.79,2.069999999999993
147,373.17,1.8299999999999557
148,374.39,2.850000000000051
149,376.29,3.3899999999999864
150,378.55,2.2649999999999864
151,380.06,1.7400000000000375
152,381.22,2.2799999999999727
153,382.74,0.5099999999999625
154,383.08,2.174999999999983
155,384.53,2.2950000000000443
156,386.06,1.7700000000000102
157,387.24,1.2150000000000034
158,388.05,1.125
159,388.8,2.369999999999976
160,390.38,1.049999999999983
161,391.08,2.2200000000000273
162,392.56,2.9099999999999966
163,394.5,0.8549999999999898
164,395.07,1.5
165,396.07,1.455000000000041
166,397.04,0.7049999999999557
167,397.51,1.950000000000017
168,398.81,2.669999999999959
169,400.59,3.030000000000058
170,402.61,0.8099999999999454
171,403.15,1.3199999999999932
172,404.03,3.930000000000007
173,406.65,0.7200000000000273
174,407.13,2.099999999999966
175,408.53,2.2200000000000273
176,410.01,3.7799999999999727
177,412.53,0.7350000000000136
178,413.02,1.8450000000000273
179,414.25,3.3899999999999864
180,416.51,3.150000000000034
181,418.61,0.75
182,419.11,2.0849999999999795
183,420.5,3.180000000000007
184,422.62,0.6599999999999966
185,423.06,2.2200000000000273
186,424.54,0.8249999999999318
187,425.09,2.1599999999999966
188,426.53,0.7350000000000136
189,427.02,2.325000000000017
190,428.57,0.8549999999999898
191,429.14,2.174999999999983
192,430.59,0.7950000000000443
193,431.12,2.1450000000000102
194,432.55,0.674999999999983
195,433.0,2.3400000000000034
196,434.56,0.7949999999999591
197,435.09,2.325000000000017
198,436.64,0.780000000000058
199,437.16,2.219999999999942
200,438.64,0.5550000000000068
201,439.01,2.369999999999976
202,440.59,0.9300000000000068
203,441.21,0.9600000000000648
204,441.85,4.139999999999986
205,444.61,0.5849999999999795
206,445.0,2.25
207,446.5,0.7649999999999864
208,447.01,2.7150000000000034
209,448.82,0.36000000000001364
210,449.06,2.400000000000034
211,450.66,3.194999999999993
212,452.79,0.38999999999998636
213,453.05,2.294999999999959
214,454.58,0.780000000000058
215,455.1,2.0099999999999625
216,456.44,1.2150000000000034
217,457.25,1.9049999999999727
218,458.52,0.75
219,459.02,2.100000000000051
220,460.42,0.8849999999999625
221,461.01,2.3549999999999898
222,462.58,2.9700000000000273
223,464.56,0.8849999999999625
224,465.15,2.025000000000034
225,466.5,0.9749999999999659
226,467.15,2.085000000000065
227,468.54,0.9749999999999659
228,469.19,1.3650000000000375
229,470.1,3.7349999999999284
230,472.59,0.6450000000000102
231,473.02,2.3400000000000034
232,474.58,0.7050000000000409
233,475.05,2.174999999999983
234,476.5,1.0349999999999966
235,477.19,2.174999999999983
236,478.64,0.8549999999999898
237,479.21,2.205000000000041
238,480.68,0.5999999999999659
239,481.08,2.430000000000007
240,482.7,0.8549999999999898
241,483.27,3.0900000000000034
242,485.33,2.100000000000051
243,486.73,0.4049999999999727
244,487.0,0.825000000000017
245,487.55,2.2799999999999727
246,489.07,2.2649999999999864
247,490.58,0.6300000000000239
248,491.0,2.2649999999999864
249,492.51,1.0349999999999966
250,493.2,2.069999999999993
251,494.58,1.0349999999999966
252,495.27,2.1150000000000375
253,496.68,3.075000000000017
254,498.73,0.5999999999999659
255,499.13,2.0849999999999795
256,500.52,1.0200000000000102
257,501.2,2.1150000000000375
258,502.61,0.6599999999999966
259,503.05,2.444999999999993
260,504.68,0.6599999999999966
261,505.12,2.2200000000000273
262,506.6,0.7349999999999284
263,507.09,3.1200000000000614
264,509.17,0.8999999999999488
265,509.77,1.905000000000058
266,511.04,2.2799999999998875
267,512.56,0.7050000000000409
268,513.03,2.669999999999959
269,514.81,1.230000000000075
270,515.63,4.440000000000055
271,518.59,2.9700000000000273
272,520.57,0.7349999999998431
273,521.06,3.6900000000000546
274,523.52,1.4250000000000682
275,524.47,1.0349999999999113
276,525.16,2.2350000000000136
277,526.65,0.9000000000000341
278,527.25,1.9499999999999318
279,528.55,0.9150000000000205
280,529.16,2.055000000000007
281,530.53,0.7949999999999591
282,531.06,1.6350000000000477
283,532.15,1.125
284,532.9,2.474999999999966
285,534.55,0.9000000000000341
286,535.15,1.4100000000000819
287,536.09,1.1100000000000136
288,536.83,2.625
289,538.58,0.644999999999925
290,539.01,1.1399999999999864
291,539.77,1.5900000000000887
292,540.83,2.5049999999999386
293,542.5,0.9000000000000341
294,543.1,1.9799999999999045
295,544.42,1.080000000000041
296,545.14,2.0849999999999795
297,546.53,2.955000000000041
298,548.5,0.7799999999999727
299,549.02,2.1900000000000546
300,550.48,1.3199999999999932
301,551.36,1.8450000000000273
302,552.59,0.8699999999998909
303,553.17,2.2649999999999864
304,554.68,0.5100000000000477
305,555.02,1.830000000000041
306,556.24,3.675000000000068
307,558.69,0.5699999999999932
308,559.07,2.3099999999999454
309,560.61,0.5999999999999659
310,561.01,2.324999999999932
311,562.56,1.8600000000000136
312,563.8,4.245000000000061
313,566.63,0.9000000000000341
314,567.23,1.1849999999999454
315,568.02,1.6949999999999932
316,569.15,2.2200000000000273
317,570.63,0.6900000000000546
318,571.09,2.1299999999999386
319,572.51,6.224999999999966
320,576.66,1.125
321,577.41,1.830000000000041
322,578.63,0.6149999999999523
323,579.04,2.310000000000116
324,580.58,0.7049999999998704
325,581.05,2.444999999999993
326,582.68,0.8850000000000477
327,583.27,2.0849999999999795
328,584.66,0.5250000000000341
329,585.01,2.4599999999999795
330,586.65,0.8250000000001023
331,587.2,2.03999999999985
332,588.56,0.6600000000000819
333,589.0,2.5049999999999386
334,590.67,2.7900000000000205
335,592.53,0.9150000000000205
336,593.14,2.3099999999999454
337,594.68,0.75
338,595.18,2.46000000000015
339,596.82,0.4199999999999591
340,597.1,2.144999999999925
341,598.53,0.3824999999999932
342,598.785,1.8525000000000205
343,600.02,4.035000000000082
344,602.71,0.644999999999925
345,603.14,2.2350000000000136
346,604.63,3.074999999999932
347,606.68,0.5400000000000205
348,607.04,2.3250000000001023
349,608.59,0.6299999999999386
350,609.01,1.5599999999999454
351,610.05,3.855000000000075
352,612.62,0.7350000000000136
353,613.11,1.3799999999999386
354,614.03,1.7850000000000819
355,615.22,2.189999999999884
356,616.68,0.48000000000007503
357,617.0,1.6200000000000614
358,618.08,1.6199999999998909
359,619.16,2.160000000000082
360,620.6,0.689999999999884
361,621.06,1.7250000000001364
362,622.21,2.9249999999998977
363,624.16,1.7550000000001091
364,625.33,1.9049999999999727
365,626.6,0.6599999999999113
366,627.04,2.310000000000116
367,628.58,0.7350000000000136
368,629.07,2.2049999999998704
369,630.54,2.9400000000000546
370,632.5,0.7799999999999727
371,633.02,2.099999999999966
372,634.42,2.444999999999993
373,636.05,1.650000000000034
374,637.15,1.8150000000000546
375,638.36,1.0049999999999386
376,639.03,2.5200000000000955
377,640.71,0.43499999999994543
378,641.0,3.0149999999999864
379,643.01,2.3850000000000477
380,644.6,0.8099999999999454
381,645.14,2.0400000000000205
382,646.5,1.0500000000000682
383,647.2,2.339999999999918
384,648.76,0.4499999999999318
385,649.06,2.2200000000000273
386,650.54,0.7799999999999727
387,651.06,2.175000000000068
388,652.51,3.074999999999932
389,654.56,2.910000000000082
390,656.5,0.9300000000000068
391,657.12,2.099999999999966
392,658.52,0.8700000000000614
393,659.1,2.2200000000000273
394,660.58,0.6599999999999113
395,661.02,2.3400000000000887
396,662.58,0.8999999999998636
397,663.18,2.7900000000000205
398,665.04,2.625
399,666.79,0.6750000000000682
400,667.24,1.8899999999999864
401,668.5,1.2600000000000477
402,669.34,0.6299999999999386
403,669.76,3.419999999999959
404,672.04,3.7950000000001296
405,674.57,0.7349999999998431
406,675.06,2.175000000000068
407,676.51,3.105000000000075
408,678.58,0.7350000000000136
409,679.07,2.144999999999925
410,680.5,1.080000000000041
411,681.22,2.294999999999959
412,682.75,0.7350000000000136
413,683.24,2.025000000000034
414,684.59,0.7200000000000273
415,685.07,2.324999999999932
416,686.62,0.5849999999999795
417,687.01,2.4150000000000205
418,688.62,0.7949999999999591
419,689.15,2.1149999999999523
420,690.56,1.0950000000000273
421,691.29,2.0400000000000205
422,692.65,0.7799999999999727
423,693.17,2.0849999999999795
424,694.56,2.925000000000068
425,696.51,1.0049999999999386
426,697.18,2.055000000000007
427,698.55,1.0650000000000546
428,699.26,1.9650000000000887
429,700.57,0.8099999999999454
430,701.11,2.1299999999999386
431,702.53,0.75
432,703.03,2.2799999999999727
433,704.55,0.7200000000000273
434,705.03,2.3400000000000887
435,706.59,0.6299999999999386
436,707.01,2.5200000000000955
437,708.69,0.4799999999999045
438,709.01,2.5650000000000546
439,710.72,0.7649999999999864
440,711.23,2.099999999999966
441,712.63,1.2450000000000614
442,713.46,4.6650000000000205
443,716.57,0.7049999999998704
444,717.04,2.205000000000041
445,718.51,0.75
446,719.01,2.6399999999999864
447,720.77,0.4049999999999727
448,721.04,2.1900000000000546
449,722.5,0.8249999999999318
450,723.05,2.490000000000123
451,724.71,0.6299999999999386
452,725.13,2.1149999999999523
453,726.54,0.8850000000000477
454,727.13,2.25
455,728.63,0.6299999999999386
456,729.05,2.550000000000068
457,730.75,0.375
458,731.0,2.430000000000007
459,732.62,0.6599999999999113
460,733.06,2.265000000000157
461,734.57,0.6749999999998977
462,735.02,2.2799999999999727
463,736.54,0.9000000000000341
464,737.14,2.1299999999999386
465,738.56,0.6750000000000682
466,739.01,2.400000000000034
467,740.61,0.75
468,741.11,2.1299999999999386
469,742.53,0.810000000000116
470,743.07,2.444999999999993
471,744.7,0.46499999999991815
472,745.01,2.2799999999999727
473,746.53,0.9150000000000205
474,747.14,0.6900000000000546
475,747.6,2.744999999999891
476,749.43,1.6650000000000205
477,750.54,7.110000000000014
478,755.28,1.8450000000000273
479,756.51,3.0149999999999864
480,758.52,3.194999999999993
481,760.65,2.9850000000000136
482,762.64,0.6900000000000546
483,763.1,1.9799999999999045
484,764.42,2.430000000000007
485,766.04,1.1700000000001296
486,766.82,2.78999999999985
487,768.68,0.5250000000000341
488,769.03,2.0100000000000477
489,770.37,1.0950000000000273
490,771.1,2.1149999999999523
491,772.51,3.150000000000034
492,774.61,0.6299999999999386
493,775.03,2.3400000000000887
494,776.59,0.7799999999999727
495,777.11,2.3850000000000477
496,778.7,3.944999999999993
497,781.33,1.1399999999999864
498,782.09,2.939999999999884
499,784.05,4.005000000000109
500,786.72,1.2149999999999181
501,787.53,1.935000000000116
502,788.82,1.8599999999998431
503,790.06,1.3500000000001364
504,790.96,2.099999999999966
505,792.36,1.6200000000000614
506,793.44,2.0249999999998636
507,794.79,1.7700000000000955
508,795.97,1.4850000000000136
509,796.96,2.430000000000007
510,798.58,2.9249999999998977
511,800.53,3.1650000000000205
512,802.64,0.8700000000000614
513,803.22,1.9499999999999318
514,804.52,2.9700000000000273
515,806.5,2.339999999999918
516,808.06,1.650000000000034
517,809.16,1.8000000000000682
518,810.36,2.5049999999999386
519,812.03,1.724999999999966
520,813.18,2.25
521,814.68,0.7350000000000136
522,815.17,3.060000000000116
523,817.21,2.099999999999966
524,818.61,2.25
525,820.11,1.2900000000000205
526,820.97,1.8450000000000273
527,822.2,0.8549999999999045
528,822.77,1.980000000000075
529,824.09,1.8600000000000136
530,825.33,1.9799999999999045
531,826.65,0.6600000000000819
532,827.09,1.394999999999925
533,828.02,1.2150000000000887
534,828.83,2.5049999999999386
535,830.5,1.2600000000000477
536,831.34,1.1849999999999454
537,832.13,1.1100000000000136
538,832.87,2.6399999999999864
539,834.63,2.294999999999959
540,836.16,0.9150000000000205
541,836.77,2.7000000000001023
542,838.57,0.689999999999884
543,839.03,1.169999999999959
544,839.81,1.5750000000001023
545,840.86,2.4899999999999523
546,842.52,1.0500000000000682
547,843.22,1.7099999999999795
548,844.36,2.6100000000000136
549,846.1,3.6299999999999386
550,848.52,0.8400000000000887
551,849.08,1.5749999999999318
552,850.13,1.349999999999966
553,851.03,2.505000000000109
554,852.7,0.5399999999998499
555,853.06,1.3050000000000068
556,853.93,1.9050000000001432
557,855.2,1.875
558,856.45,3.2999999999998977
559,858.65,1.7099999999999795
560,859.79,1.935000000000116
561,861.08,2.1749999999998977
562,862.53,0.8700000000000614
563,863.11,2.2649999999999864
564,864.62,0.644999999999925
565,865.05,2.7450000000000614
566,866.88,0.36000000000001364
567,867.12,2.2200000000000273
568,868.6,2.8799999999999386
569,870.52,0.8850000000000477
570,871.11,1.125
571,871.86,1.724999999999966
572,873.01,2.25
573,874.51,3.8400000000000887
574,877.07,1.2299999999999045
575,877.89,1.8000000000000682
576,879.09,1.0950000000000273
577,879.82,1.875
578,881.07,1.439999999999884
579,882.03,1.5149999999999864
580,883.04,2.055000000000007
581,884.41,0.9000000000000341
582,885.01,2.25
583,886.51,2.8649999999999523
584,888.42,3.375
585,890.67,2.430000000000007
586,892.29,1.0950000000000273
587,893.02,1.5299999999999727
588,894.04,1.5299999999999727
589,895.06,1.6350000000000477
590,896.15,1.3349999999999795
591,897.04,2.580000000000041
592,898.76,0.4499999999999318
593,899.06,2.355000000000075
594,900.63,0.5849999999999795
595,901.02,1.3649999999999523
596,901.93,1.3800000000001091
597,902.85,2.6549999999999727
598,904.62,0.9449999999999932
599,905.25,5.069999999999993
600,908.63,0.5550000000000068
601,909.0,2.519999999999925
602,910.68,0.5699999999999932
603,911.06,1.980000000000075
604,912.38,2.894999999999925
605,914.31,3.1350000000000477
606,916.4,3.194999999999993
607,918.53,1.0200000000000955
608,919.21,1.6349999999998772
609,920.3,1.1100000000000136
610,921.04,2.25
611,922.54,3.7200000000000273
612,925.02,2.3099999999999454
613,926.56,0.8850000000000477
614,927.15,2.130000000000109
615,928.57,0.8699999999998909
616,929.15,1.4100000000000819
617,930.09,1.1549999999999727
618,930.86,1.6200000000000614
619,931.94,3.839999999999918
620,934.5,0.8099999999999454
621,935.04,2.2950000000001296
622,936.57,2.984999999999843
623,938.56,0.9450000000001637
624,939.19,2.1299999999999386
625,940.61,0.9449999999999932
626,941.24,1.8899999999999864
627,942.5,0.9449999999999932
628,943.13,2.400000000000034
629,944.73,0.5699999999999932
630,945.11,2.1900000000000546
631,946.57,0.7349999999998431
632,947.06,2.400000000000034
633,948.66,1.830000000000041
634,949.88,3.480000000000075
635,952.2,1.0349999999999113
636,952.89,2.550000000000068
637,954.59,0.6749999999998977
638,955.04,2.4150000000000205
639,956.65,2.819999999999993
640,958.53,0.7649999999999864
641,959.04,5.550000000000068
642,962.74,2.3850000000000477
643,964.33,3.419999999999959
644,966.61,3.0
645,968.61,2.8799999999999386
646,970.53,0.7649999999999864
647,971.04,1.3650000000001228
648,971.95,1.6049999999999045
649,973.02,1.9349999999999454
650,974.31,3.615000000000123
651,976.72,0.5250000000000341
652,977.07,2.3999999999998636
653,978.67,0.6300000000001091
654,979.09,2.4899999999999523
655,980.75,0.5100000000000477
656,981.09,1.394999999999925
657,982.02,1.4250000000000682
658,982.97,1.6650000000000205
659,984.08,1.125
660,984.83,1.9799999999999045
661,986.15,1.3050000000000068
662,987.02,1.919999999999959
663,988.3,1.4400000000000546
664,989.26,4.830000000000041
665,992.48,1.919999999999959
666,993.76,1.650000000000034
667,994.86,1.4099999999999113
668,995.8,1.5750000000001023
669,996.85,2.819999999999993
670,998.73,0.4799999999999045
671,999.05,2.2200000000000273
672,1000.53,0.8850000000000477
673,1001.12,1.3349999999999795
674,1002.01,1.1549999999999727
675,1002.78,1.605000000000075
676,1003.85,2.025000000000034
677,1005.2,1.9949999999998909
678,1006.53,1.0650000000000546
679,1007.24,1.3649999999999523
680,1008.15,1.605000000000075
681,1009.22,2.189999999999884
682,1010.68,0.5250000000000341
683,1011.03,2.535000000000082
684,1012.72,0.4199999999999591
685,1013.0,2.5049999999999386
686,1014.67,0.6300000000001091
687,1015.09,1.1849999999999454
688,1015.88,1.9049999999999727
689,1017.15,2.099999999999966
690,1018.55,4.319999999999993
691,1021.43,1.605000000000075
692,1022.5,3.1799999999998363
693,1024.62,2.08500000000015
694,1026.01,1.2149999999999181
695,1026.82,1.4700000000000273
696,1027.8,1.7250000000001364
697,1028.95,2.369999999999891
698,1030.53,2.6100000000000136
699,1032.27,3.4349999999999454
700,1034.56,0.7949999999999591
701,1035.09,2.1450000000000955
702,1036.52,1.2449999999998909
703,1037.35,2.2649999999999864
704,1038.86,2.3550000000002456
705,1040.43,0.959999999999809
706,1041.07,1.1549999999999727
707,1041.84,2.08500000000015
708,1043.23,1.9349999999999454
709,1044.52,3.119999999999891
710,1046.6,2.910000000000082
711,1048.54,2.205000000000041
712,1050.01,3.044999999999959
713,1052.04,1.6800000000001774
714,1053.16,2.205000000000041
715,1054.63,0.7049999999996999
716,1055.1,1.8000000000000682
717,1056.3,3.540000000000191
718,1058.66,0.7799999999999727
719,1059.18,1.8899999999999864
720,1060.44,3.134999999999877
721,1062.53,3.7649999999999864
722,1065.04,2.369999999999891
723,1066.62,0.8250000000002728
724,1067.17,1.9949999999998909
725,1068.5,0.9299999999998363
726,1069.12,1.7700000000000955
727,1070.3,1.169999999999959
728,1071.08,4.470000000000027
729,1074.06,1.1549999999999727
730,1074.83,2.2649999999999864
731,1076.34,1.2600000000002183
732,1077.18,1.919999999999959
733,1078.46,1.0200000000000955
734,1079.14,2.174999999999727
735,1080.59,2.6850000000002865
736,1082.38,3.209999999999809
737,1084.52,0.7799999999999727
738,1085.04,2.505000000000109
739,1086.71,0.43499999999994543
740,1087.0,1.9949999999998909
741,1088.33,3.2700000000000955
742,1090.51,3.3450000000000273
743,1092.74,0.43499999999994543
744,1093.03,2.3099999999999454
745,1094.57,2.9400000000000546
746,1096.53,2.205000000000041
747,1098.0,1.919999999999959
748,1099.28,0.4799999999999045
749,1099.6,2.3850000000002183
750,1101.19,0.7050000000000409
751,1101.66,2.0999999999997954
752,1103.06,0.9000000000002046
753,1103.66,1.919999999999959
754,1104.94,2.1900000000000546
755,1106.4,2.4449999999998226
756,1108.03,1.6049999999999045
757,1109.1,2.1900000000000546
758,1110.56,2.25
759,1112.06,1.3500000000001364
760,1112.96,1.9649999999999181
761,1114.27,2.6849999999999454
762,1116.06,1.1399999999999864
763,1116.82,2.2799999999999727
764,1118.34,2.5950000000000273
765,1120.07,1.875
766,1121.32,2.8950000000000955
767,1123.25,2.865000000000123
768,1125.16,0.6149999999997817
769,1125.57,2.370000000000232
770,1127.15,1.8450000000000273
771,1128.38,2.8499999999997954
772,1130.28,1.875
773,1131.53,2.0700000000001637
774,1132.91,2.504999999999768
775,1134.58,0.7799999999999727
776,1135.1,2.2799999999999727
777,1136.62,5.3100000000002865
778,1140.16,1.379999999999768
779,1141.08,2.205000000000041
780,1142.55,3.0599999999999454
781,1144.59,2.160000000000082
782,1146.03,3.0
783,1148.03,1.3800000000001091
784,1148.95,2.5950000000000273
785,1150.68,0.6149999999997817
786,1151.09,2.1900000000000546
787,1152.55,1.0650000000000546
788,1153.26,1.9649999999999181
789,1154.57,2.4000000000002046
790,1156.17,1.6199999999998909
791,1157.25,2.175000000000068
792,1158.7,0.7949999999999591
793,1159.23,1.9949999999998909
794,1160.56,0.8550000000002456
795,1161.13,1.7999999999997272
796,1162.33,2.175000000000068
797,1163.78,1.7850000000000819
798,1164.97,2.5200000000000955
799,1166.65,0.7649999999999864
800,1167.16,2.0999999999997954
801,1168.56,0.7649999999999864
802,1169.07,1.4700000000000273
803,1170.05,1.5749999999999318
804,1171.1,1.8150000000000546
805,1172.31,1.0650000000000546
806,1173.02,1.9649999999999181
807,1174.33,1.0350000000000819
808,1175.02,2.25
809,1176.52,0.7350000000000136
810,1177.01,2.369999999999891
811,1178.59,0.6600000000000819
812,1179.03,2.369999999999891
813,1180.61,0.8100000000002865
814,1181.15,1.66499999999985
815,1182.26,1.169999999999959
816,1183.04,2.205000000000041
817,1184.51,3.0599999999999454
818,1186.55,0.8850000000002183
819,1187.14,2.084999999999809
820,1188.53,0.8099999999999454
821,1189.07,2.4750000000001364
822,1190.72,2.175000000000068
823,1192.17,1.0499999999997272
824,1192.87,2.160000000000082
825,1194.31,1.3950000000000955
826,1195.24,1.3049999999998363
827,1196.11,1.2000000000002728
828,1196.91,2.6100000000000136
829,1198.65,2.504999999999768
830,1200.32,1.2150000000002592
831,1201.13,1.28999999999985
832,1201.99,1.3049999999998363
833,1202.86,2.5200000000000955
834,1204.54,0.75
835,1205.04,2.3850000000002183
836,1206.63,4.934999999999945
837,1209.92,1.4850000000000136
838,1210.91,1.5899999999999181
839,1211.97,1.6199999999998909
840,1213.05,2.175000000000068
841,1214.5,0.8999999999998636
842,1215.1,1.995000000000232
843,1216.43,0.38999999999998636
844,1216.69,2.879999999999768
845,1218.61,0.9750000000001364
846,1219.26,1.9499999999999318
847,1220.56,0.8099999999999454
848,1221.1,1.7700000000000955
849,1222.28,1.1399999999999864
850,1223.04,2.2649999999999864
851,1224.55,0.7649999999999864
852,1225.06,2.4300000000001774
853,1226.68,0.75
854,1227.18,2.369999999999891
855,1228.76,2.6849999999999454
856,1230.55,0.7350000000000136
857,1231.04,1.9799999999999045
858,1232.36,1.3050000000001774
859,1233.23,2.294999999999959
860,1234.76,2.78999999999985
861,1236.62,2.0700000000001637
862,1238.0,1.2599999999998772
863,1238.84,1.6800000000001774
864,1239.96,1.8450000000000273
865,1241.19,1.754999999999768
866,1242.36,3.300000000000068
867,1244.56,0.7949999999999591
868,1245.09,1.4250000000000682
869,1246.04,1.1399999999999864
870,1246.8,2.550000000000068
871,1248.5,0.9750000000001364
872,1249.15,2.084999999999809
873,1250.54,0.8099999999999454
874,1251.08,2.1450000000000955
875,1252.51,2.7299999999999045
876,1254.33,1.3950000000000955
877,1255.26,1.8600000000000136
878,1256.5,0.7799999999999727
879,1257.02,2.009999999999877
880,1258.36,2.5950000000000273
881,1260.09,1.1100000000000136
882,1260.83,2.7750000000002046
883,1262.68,0.8249999999999318
884,1263.23,1.9349999999999454
885,1264.52,0.7350000000000136
886,1265.01,1.9349999999999454
887,1266.3,1.0650000000000546
888,1267.01,2.2649999999999864
889,1268.52,0.8999999999998636
890,1269.12,2.205000000000041
891,1270.59,1.0650000000000546
892,1271.3,1.5899999999999181
893,1272.36,0.75
894,1272.86,2.46000000000015
895,1274.5,0.7799999999999727
896,1275.02,2.2799999999999727
897,1276.54,0.8699999999998909
898,1277.12,2.160000000000082
899,1278.56,0.6750000000000682
900,1279.01,2.6100000000000136
901,1280.75,2.294999999999959
902,1282.28,1.1549999999999727
903,1283.05,2.2649999999999864
904,1284.56,0.9900000000001228
905,1285.22,2.7299999999999045
906,1287.04,2.4450000000001637
907,1288.67,2.744999999999891
908,1290.5,1.0200000000000955
909,1291.18,2.0699999999998226
910,1292.56,2.865000000000123
911,1294.47,2.759999999999877
912,1296.31,1.1999999999999318
913,1297.11,1.3500000000001364
914,1298.01,1.2599999999998772
915,1298.85,2.5950000000000273
916,1300.58,2.2350000000000136
917,1302.07,1.0350000000000819
918,1302.76,2.294999999999959
919,1304.29,1.3500000000001364
920,1305.19,1.6049999999999045
921,1306.26,1.2749999999998636
922,1307.11,1.5450000000003001
923,1308.14,3.5699999999998226
924,1310.52,3.0
925,1312.52,2.83500000000015
926,1314.41,3.299999999999727
927,1316.61,0.6150000000001228
928,1317.02,1.0950000000000273
929,1317.75,1.9499999999999318
930,1319.05,1.3650000000001228
931,1319.96,1.2599999999998772
932,1320.8,2.205000000000041
933,1322.27,1.1100000000000136
934,1323.01,2.2799999999999727
935,1324.53,9.555000000000177
936,1330.9,-2.8200000000001637
937,1329.02,2.4450000000001637
938,1330.65,0.5999999999997954
939,1331.05,0.9450000000001637
940,1331.68,4.394999999999754
941,1334.61,0.2700000000000955
942,1334.79,1.1549999999999727
943,1335.56,2.339999999999918
944,1337.12,2.340000000000259
945,1338.68,1.1549999999999727
946,1339.45,2.129999999999768
947,1340.87,2.550000000000068
948,1342.57,1.3200000000001637
949,1343.45,1.7700000000000955
950,1344.63,0.8549999999999045
951,1345.2,1.2599999999998772
952,1346.04,1.6950000000001637
953,1347.17,0.8549999999999045
954,1347.74,2.1000000000001364
955,1349.14,1.2149999999999181
956,1349.95,1.9649999999999181
957,1351.26,1.6950000000001637
958,1352.39,3.659999999999741
959,1354.83,2.505000000000109
960,1356.5,1.0350000000000819
961,1357.19,2.084999999999809
962,1358.58,0.4650000000002592
963,1358.89,1.2149999999999181
964,1359.7,2.084999999999809
965,1361.09,1.71000000000015
966,1362.23,1.3049999999998363
967,1363.1,0.2700000000000955
968,1363.28,4.785000000000082
969,1366.47,3.209999999999809
970,1368.61,0.6750000000000682
971,1369.06,4.455000000000041
972,1372.03,1.455000000000041
973,1373.0,1.6499999999998636
974,1374.1,3.5250000000002046
975,1376.45,1.1999999999999318
976,1377.25,1.6049999999999045
977,1378.32,3.3150000000000546
978,1380.53,1.0650000000000546
979,1381.24,1.919999999999959
980,1382.52,2.205000000000041
981,1383.99,1.5599999999999454
982,1385.03,1.0200000000000955
983,1385.71,1.8450000000000273
984,1386.94,1.6499999999998636
985,1388.04,1.1999999999999318
986,1388.84,1.5600000000002865
987,1389.88,1.3649999999997817
988,1390.79,1.830000000000041
989,1392.01,1.3200000000001637
990,1392.89,2.459999999999809
991,1394.53,0.9300000000001774
992,1395.15,1.4549999999996999
993,1396.12,1.455000000000041
994,1397.09,2.7300000000002456
995,1398.91,1.455000000000041
996,1399.88,1.5899999999999181
997,1400.94,1.6349999999998772
998,1402.03,1.3200000000001637
999,1402.91,1.709999999999809
1000,1404.05,1.5
1001,1405.05,2.294999999999959
1002,1406.58,0.8700000000002319
1003,1407.16,2.159999999999741
1004,1408.6,0.8400000000002592
1005,1409.16,2.0999999999997954
1006,1410.56,0.4049999999999727
1007,1410.83,2.580000000000041
1008,1412.55,0.9000000000002046
1009,1413.15,1.4249999999997272
1010,1414.1,1.5900000000002592
1011,1415.16,1.4700000000000273
1012,1416.14,1.4249999999997272
1013,1417.09,1.290000000000191
1014,1417.95,1.6949999999998226
1015,1419.08,2.700000000000273
1016,1420.88,1.5
1017,1421.88,1.5299999999999727
1018,1422.9,1.3649999999997817
1019,1423.81,1.4100000000000819
1020,1424.75,2.4750000000001364
1021,1426.4,2.744999999999891
1022,1428.23,1.2299999999999045
1023,1429.05,2.0550000000001774
1024,1430.42,3.16499999999985
1025,1432.53,0.7350000000000136
1026,1433.02,2.505000000000109
1027,1434.69,2.759999999999877
1028,1436.53,0.8099999999999454
1029,1437.07,2.324999999999932
1030,1438.62,0.6150000000001228
1031,1439.03,1.5
1032,1440.03,1.1999999999999318
1033,1440.83,2.340000000000259
1034,1442.39,3.53999999999985
1035,1444.75,0.4499999999999318
1036,1445.05,2.4000000000002046
1037,1446.65,0.7799999999999727
1038,1447.17,2.009999999999877
1039,1448.51,1.0350000000000819
1040,1449.2,1.9799999999999045
1041,1450.52,0.8099999999999454
1042,1451.06,1.8899999999999864
1043,1452.32,1.0950000000000273
1044,1453.05,2.175000000000068
1045,1454.5,0.7649999999999864
1046,1455.01,1.8600000000000136
1047,1456.25,1.3650000000001228
1048,1457.16,0.5699999999998226
1049,1457.54,1.830000000000041
1050,1458.76,2.6849999999999454
1051,1460.55,0.9000000000002046
1052,1461.15,4.754999999999768
1053,1464.32,1.0350000000000819
1054,1465.01,2.580000000000041
1055,1466.73,3.0
1056,1468.73,2.084999999999809
1057,1470.12,1.125
1058,1470.87,1.6800000000001774
1059,1471.99,1.2299999999999045
1060,1472.81,1.6800000000001774
1061,1473.93,1.66499999999985
1062,1475.04,2.369999999999891
1063,1476.62,2.1900000000000546
1064,1478.08,1.169999999999959
1065,1478.86,2.745000000000232
1066,1480.69,1.1849999999999454
1067,1481.48,2.0249999999998636
1068,1482.83,2.2799999999999727
1069,1484.35,1.0650000000000546
1070,1485.06,5.235000000000014
1071,1488.55,2.955000000000041
1072,1490.52,0.8549999999999045
1073,1491.09,1.0950000000000273
1074,1491.82,1.5299999999999727
1075,1492.84,3.7350000000000136
1076,1495.33,1.7550000000001091
1077,1496.5,0.9750000000001364
1078,1497.15,2.174999999999727
1079,1498.6,2.9700000000000273
1080,1500.58,0.7200000000000273
1081,1501.06,1.3950000000000955
1082,1501.99,1.9349999999999454
1083,1503.28,2.550000000000068
1084,1504.98,2.3999999999998636
1085,1506.58,2.1450000000000955
1086,1508.01,1.6349999999998772
1087,1509.1,2.2799999999999727
1088,1510.62,0.6000000000001364
1089,1511.02,1.2149999999999181
1090,1511.83,3.255000000000109
1091,1514.0,1.9049999999999727
1092,1515.27,1.6800000000001774
1093,1516.39,3.209999999999809
1094,1518.53,2.6549999999999727
1095,1520.3,1.1100000000000136
1096,1521.04,2.25
1097,1522.54,2.2799999999999727
1098,1524.06,3.300000000000068
1099,1526.26,1.4400000000000546
1100,1527.22,1.9799999999999045
1101,1528.54,0.8249999999999318
1102,1529.09,2.115000000000123
1103,1530.5,1.0650000000000546
1104,1531.21,2.1149999999997817
1105,1532.62,0.6300000000001091
1106,1533.04,2.505000000000109
1107,1534.71,1.9649999999999181
1108,1536.02,1.3050000000001774
1109,1536.89,2.4749999999997954
1110,1538.54,2.2200000000000273
1111,1540.02,1.6800000000001774
1112,1541.14,2.129999999999768
1113,1542.56,3.0
1114,1544.56,0.6900000000000546
1115,1545.02,2.6849999999999454
1116,1546.81,0.28500000000008185
1117,1547.0,1.3800000000001091
1118,1547.92,1.5
1119,1548.92,2.384999999999877
1120,1550.51,0.8999999999998636
1121,1551.11,2.325000000000273
1122,1552.66,2.7299999999999045
1123,1554.48,6.179999999999836
1124,1558.6,2.115000000000123
1125,1560.01,1.544999999999959
1126,1561.04,2.205000000000041
1127,1562.51,0.9600000000001501
1128,1563.15,2.03999999999985
1129,1564.51,3.119999999999891
1130,1566.59,0.6750000000000682
1131,1567.04,2.205000000000041
1132,1568.51,0.8399999999999181
1133,1569.07,2.1900000000000546
1134,1570.53,3.134999999999877
1135,1572.62,0.6000000000001364
1136,1573.02,1.290000000000191
1137,1573.88,1.379999999999768
1138,1574.8,1.5749999999999318
1139,1575.85,1.7400000000001228
1140,1577.01,2.2649999999999864
1141,1578.52,0.8099999999999454
1142,1579.06,1.8600000000000136
1143,1580.3,3.0599999999999454
1144,1582.34,1.0950000000000273
1145,1583.07,2.4000000000002046
1146,1584.67,2.955000000000041
1147,1586.64,0.584999999999809
1148,1587.03,1.3050000000001774
1149,1587.9,1.6499999999998636
1150,1589.0,2.3099999999999454
1151,1590.54,3.089999999999918
1152,1592.6,0.6150000000001228
1153,1593.01,3.9750000000001364
1154,1595.66,1.9049999999999727
1155,1596.93,2.5199999999997544
1156,1598.61,0.8400000000002592
1157,1599.17,1.709999999999809
1158,1600.31,3.630000000000109
1159,1602.73,1.5299999999999727
1160,1603.75,3.5549999999998363
1161,1606.12,1.8000000000000682
1162,1607.32,4.080000000000041
1163,1610.04,3.1350000000002183
1164,1612.13,1.4099999999997408
1165,1613.07,2.0250000000002046
1166,1614.42,0.9449999999998226
1167,1615.05,1.995000000000232
1168,1616.38,0.9899999999997817
1169,1617.04,2.550000000000068
1170,1618.74,0.46499999999991815
1171,1619.05,2.2799999999999727
1172,1620.57,0.7200000000000273
1173,1621.05,1.8600000000000136
1174,1622.29,2.2649999999999864
1175,1623.8,3.330000000000041
1176,1626.02,1.2599999999998772
1177,1626.86,2.4750000000001364
1178,1628.51,1.919999999999959
1179,1629.79,1.455000000000041
1180,1630.76,3.0599999999999454
1181,1632.8,2.910000000000082
1182,1634.74,0.7799999999999727
1183,1635.26,2.550000000000068
1184,1636.96,0.8849999999998772
1185,1637.55,5.279999999999973
1186,1641.07,1.1849999999999454
1187,1641.86,4.125
1188,1644.61,0.8100000000002865
1189,1645.15,1.334999999999809
1190,1646.04,1.5599999999999454
1191,1647.08,1.3800000000001091
1192,1648.0,1.169999999999959
1193,1648.78,2.205000000000041
1194,1650.25,2.6399999999999864
1195,1652.01,1.3200000000001637
1196,1652.89,2.384999999999877
1197,1654.48,0.8699999999998909
1198,1655.06,2.4000000000002046
1199,1656.66,2.1149999999997817
1200,1658.07,3.7799999999999727
1201,1660.59,0.7050000000000409
1202,1661.06,2.4300000000001774
1203,1662.68,1.830000000000041
1204,1663.9,3.375
1205,1666.15,1.2299999999999045
1206,1666.97,2.3099999999999454
1207,1668.51,0.8699999999998909
1208,1669.09,1.3650000000001228
1209,1670.0,3.7200000000000273
1210,1672.48,0.8849999999998772
1211,1673.07,1.5149999999999864
1212,1674.08,1.6950000000001637
1213,1675.21,2.324999999999932
1214,1676.76,0.375
1215,1677.01,4.574999999999932
1216,1680.06,1.7250000000001364
1217,1681.21,2.2799999999999727
1218,1682.73,0.4499999999999318
1219,1683.03,2.2350000000000136
1220,1684.52,2.9700000000000273
1221,1686.5,2.41499999999985
1222,1688.11,1.9350000000002865
1223,1689.4,0.959999999999809
1224,1690.04,3.255000000000109
1225,1692.21,0.9749999999997954
1226,1692.86,2.550000000000068
1227,1694.56,1.9049999999999727
1228,1695.83,2.08500000000015
1229,1697.22,2.160000000000082
1230,1698.66,1.6799999999998363
1231,1699.78,1.9349999999999454
1232,1701.07,2.4000000000002046
1233,1702.67,0.5699999999998226
1234,1703.05,2.2200000000000273
1235,1704.53,1.5149999999999864
1236,1705.54,2.0700000000001637
1237,1706.92,2.5650000000000546
1238,1708.63,2.9399999999997135
1239,1710.59,2.2200000000000273
1240,1712.07,3.675000000000068
1241,1714.52,3.0599999999999454
1242,1716.56,2.2200000000000273
1243,1718.04,1.5149999999999864
1244,1719.05,1.8450000000000273
1245,1720.28,1.080000000000041
1246,1721.0,1.3650000000001228
1247,1721.91,1.7849999999997408
1248,1723.1,1.7700000000000955
1249,1724.28,2.5650000000000546
1250,1725.99,3.2250000000001364
1251,1728.14,2.9850000000000136
1252,1730.13,3.5999999999997954
1253,1732.53,2.1900000000000546
1254,1733.99,4.934999999999945
1255,1737.28,2.759999999999877
1256,1739.12,0.7050000000000409
1257,1739.59,1.7700000000000955
1258,1740.77,2.2799999999999727
1259,1742.29,1.665000000000191
1260,1743.4,2.6100000000000136
1261,1745.14,0.8399999999999181
1262,1745.7,1.8899999999999864
1263,1746.96,2.0699999999998226
1264,1748.34,1.080000000000041
1265,1749.06,2.205000000000041
1266,1750.53,2.2350000000000136
1267,1752.02,1.830000000000041
1268,1753.24,0.7200000000000273
1269,1753.72,1.7249999999997954
1270,1754.87,1.0050000000001091
1271,1755.54,1.8450000000000273
1272,1756.77,2.8500000000001364
1273,1758.67,1.2449999999998909
1274,1759.5,2.1000000000001364
1275,1760.9,1.0649999999997135
1276,1761.61,1.71000000000015
1277,1762.75,2.2649999999999864
1278,1764.26,3.5249999999998636
1279,1766.61,0.8100000000002865
1280,1767.15,1.7249999999997954
1281,1768.3,2.6549999999999727
1282,1770.07,3.044999999999959
1283,1772.1,1.3950000000000955
1284,1773.03,2.2200000000000273
1285,1774.51,1.7700000000000955
1286,1775.69,1.6799999999998363
1287,1776.81,2.324999999999932
1288,1778.36,2.490000000000123
1289,1780.02,6.600000000000136
1290,1784.42,2.4749999999997954
1291,1786.07,4.050000000000068
1292,1788.77,0.6750000000000682
1293,1789.22,1.709999999999809
1294,1790.36,2.1000000000001364
1295,1791.76,1.71000000000015
1296,1792.9,2.1899999999997135
1297,1794.36,6.465000000000259
1298,1798.67,0.584999999999809
1299,1799.06,1.71000000000015
1300,1800.2,2.669999999999959
1301,1801.98,4.005000000000109
1302,1804.65,0.5249999999998636
1303,1805.0,1.3650000000001228
1304,1805.91,2.0999999999997954
1305,1807.31,2.3099999999999454
1306,1808.85,2.535000000000082
1307,1810.54,2.490000000000123
1308,1812.2,1.6199999999998909
1309,1813.28,2.83500000000015
1310,1815.17,0.8099999999999454
1311,1815.71,1.9049999999999727
1312,1816.98,2.490000000000123
1313,1818.64,3.119999999999891
1314,1820.72,0.43499999999994543
1315,1821.01,2.160000000000082
1316,1822.45,1.0350000000000819
1317,1823.14,1.2299999999999045
1318,1823.96,1.3800000000001091
1319,1824.88,2.2199999999996862
1320,1826.36,3.0
1321,1828.36,1.6800000000001774
1322,1829.48,1.9649999999999181
1323,1830.79,6.059999999999945
1324,1834.83,0.4199999999999591
1325,1835.11,2.2649999999999864
1326,1836.62,1.8450000000000273
1327,1837.85,2.1900000000000546
1328,1839.31,2.370000000000232
1329,1840.89,2.534999999999741
1330,1842.58,2.8950000000000955
1331,1844.51,3.419999999999959
1332,1846.79,0.31500000000005457
1333,1847.0,1.2299999999999045
1334,1847.82,1.5900000000002592
1335,1848.88,2.6849999999999454
1336,1850.67,0.5099999999998772
1337,1851.01,2.25
1338,1852.51,0.75
1339,1853.01,2.535000000000082
1340,1854.7,0.5699999999998226
1341,1855.08,1.8000000000000682
1342,1856.28,1.125
1343,1857.03,1.9649999999999181
1344,1858.34,1.0950000000000273
1345,1859.07,1.9800000000002456
1346,1860.39,3.3299999999997
1347,1862.61,5.955000000000041
1348,1866.58,2.715000000000259
1349,1868.39,2.909999999999741
1350,1870.33,1.0350000000000819
1351,1871.02,1.8450000000000273
1352,1872.25,2.6399999999999864
1353,1874.01,1.5149999999999864
1354,1875.02,2.339999999999918
1355,1876.58,0.8250000000002728
1356,1877.13,2.084999999999809
1357,1878.52,0.9600000000001501
1358,1879.16,2.3549999999999045
1359,1880.73,0.5099999999998772
1360,1881.07,1.544999999999959
1361,1882.1,1.2750000000002046
1362,1882.95,2.535000000000082
1363,1884.64,3.074999999999932
1364,1886.69,0.5699999999998226
1365,1887.07,1.4400000000000546
1366,1888.03,1.5899999999999181
1367,1889.09,2.9700000000000273
1368,1891.07,1.1549999999999727
1369,1891.84,1.830000000000041
1370,1893.06,1.4100000000000819
1371,1894.0,3.75
1372,1896.5,0.8549999999999045
1373,1897.07,2.25
1374,1898.57,2.535000000000082
1375,1900.26,1.33500000000015
1376,1901.15,2.4299999999998363
1377,1902.77,0.46499999999991815
1378,1903.08,1.2750000000002046
1379,1903.93,1.9649999999999181
1380,1905.24,0.6150000000001228
1381,1905.65,1.8149999999997135
1382,1906.86,2.550000000000068
1383,1908.56,0.8850000000002183
1384,1909.15,1.7399999999997817
1385,1910.31,1.3800000000001091
1386,1911.23,0.6750000000000682
1387,1911.68,1.6499999999998636
1388,1912.78,2.6549999999999727
1389,1914.55,1.875
1390,1915.8,3.464999999999918
1391,1918.11,1.3800000000001091
1392,1919.03,0.8699999999998909
1393,1919.61,1.7400000000001228
1394,1920.77,1.9049999999999727
1395,1922.04,1.6950000000001637
1396,1923.17,0.5249999999998636
1397,1923.52,2.08500000000015
1398,1924.91,2.41499999999985
1399,1926.52,2.25
1400,1928.02,3.8999999999998636
1401,1930.62,1.6950000000001637
1402,1931.75,1.5299999999999727
1403,1932.77,2.625
1404,1934.52,0.75
1405,1935.02,2.4450000000001637
1406,1936.65,2.03999999999985
1407,1938.01,1.2299999999999045
1408,1938.83,2.6399999999999864
1409,1940.59,0.7350000000000136
1410,1941.08,1.6950000000001637
1411,1942.21,0.9749999999997954
1412,1942.86,1.5900000000002592
1413,1943.92,1.4249999999997272
1414,1944.87,2.505000000000109
1415,1946.54,0.7949999999999591
1416,1947.07,2.205000000000041
1417,1948.54,2.744999999999891
1418,1950.37,3.540000000000191
1419,1952.73,0.4049999999999727
1420,1953.0,2.175000000000068
1421,1954.45,2.9700000000000273
1422,1956.43,4.184999999999945
1423,1959.22,1.9799999999999045
1424,1960.54,0.9600000000001501
1425,1961.18,2.5650000000000546
1426,1962.89,0.22499999999979536
1427,1963.04,2.2649999999999864
1428,1964.55,3.0599999999999454
1429,1966.59,0.7200000000000273
1430,1967.07,1.0650000000000546
1431,1967.78,4.080000000000041
1432,1970.5,2.925000000000068
1433,1972.45,2.384999999999877
1434,1974.04,1.4850000000000136
1435,1975.03,2.205000000000041
1436,1976.5,2.294999999999959
1437,1978.03,1.4400000000000546
1438,1978.99,2.25
1439,1980.49,3.3450000000000273
1440,1982.72,0.4199999999999591
1441,1983.0,2.2799999999999727
1442,1984.52,3.134999999999877
1443,1986.61,1.1850000000002865
1444,1987.4,2.0699999999998226
1445,1988.78,2.714999999999918
1446,1990.59,2.9400000000000546
1447,1992.55,2.2649999999999864
1448,1994.06,1.2600000000002183
1449,1994.9,1.9649999999999181
1450,1996.21,1.1100000000000136
1451,1996.95,2.4899999999997817
1452,1998.61,1.0200000000000955
1453,1999.29,1.3200000000001637
1454,2000.17,0.8849999999998772
1455,2000.76,1.9049999999999727
1456,2002.03,1.2449999999998909
1457,2002.86,2.505000000000109
1458,2004.53,0.7050000000000409
1459,2005.0,2.2649999999999864
1460,2006.51,0.7649999999999864
1461,2007.02,2.2350000000000136
1462,2008.51,0.7649999999999864
1463,2009.02,2.2350000000000136
1464,2010.51,0.8699999999998909
1465,2011.09,2.130000000000109
1466,2012.51,0.75
1467,2013.01,2.2799999999999727
1468,2014.53,0.7200000000000273
1469,2015.01,2.2649999999999864
1470,2016.52,0.75
1471,2017.02,2.2350000000000136
1472,2018.51,1.0200000000000955
1473,2019.19,2.1900000000000546
1474,2020.65,0.5249999999998636
1475,2021.0,2.369999999999891
1476,2022.58,0.6600000000000819
1477,2023.02,2.2350000000000136
1478,2024.51,0.7649999999999864
1479,2025.02,2.2799999999999727
1480,2026.54,0.7050000000000409
1481,2027.01,2.535000000000082
1482,2028.7,0.46499999999991815
1483,2029.01,1.7550000000001091
1484,2030.18,0.9299999999998363
1485,2030.8,2.6100000000000136
1486,2032.54,0.7649999999999864
1487,2033.05,2.1900000000000546
1488,2034.51,3.8099999999999454
1489,2037.05,2.2350000000000136
1490,2038.54,1.0050000000001091
1491,2039.21,0.8699999999998909
1492,2039.79,1.5599999999999454
1493,2040.83,1.7550000000001091
1494,2042.0,1.2449999999998909
1495,2042.83,2.6100000000000136
1496,2044.57,0.7350000000000136
1497,2045.06,2.4300000000001774
1498,2046.68,1.9799999999999045
1499,2048.0,1.2449999999998909
1500,2048.83,2.6100000000003547
1501,2050.57,2.8949999999997544
1502,2052.5,1.0199999999997544
1503,2053.18,2.085000000000491
1504,2054.57,0.75
1505,2055.07,4.109999999999673
1506,2057.81,1.5450000000003001
1507,2058.84,2.6399999999996453
1508,2060.6,0.915000000000191
1509,2061.21,1.9949999999998909
1510,2062.54,2.7749999999998636
1511,2064.39,1.1400000000003274
1512,2065.15,2.2349999999996726
1513,2066.64,0.75
1514,2067.14,2.0700000000001637
1515,2068.52,1.0499999999997272
1516,2069.22,1.9350000000006276
1517,2070.51,1.2449999999998909
1518,2071.34,1.4700000000000273
1519,2072.32,3.3150000000000546
1520,2074.53,0.7349999999996726
1521,2075.02,2.3550000000002456
1522,2076.59,0.6149999999997817
1523,2077.0,2.2650000000003274
1524,2078.51,0.7799999999999727
1525,2079.03,2.459999999999809
1526,2080.67,0.540000000000191
1527,2081.03,2.2200000000000273
1528,2082.51,0.8849999999995362
1529,2083.1,1.7400000000004638
1530,2084.26,3.375
1531,2086.51,0.9899999999997817
1532,2087.17,2.0700000000001637
1533,2088.55,0.7349999999996726
1534,2089.04,2.4299999999998363
1535,2090.66,0.9900000000004638
1536,2091.32,1.919999999999618
1537,2092.6,0.705000000000382
1538,2093.07,2.3099999999999454
1539,2094.61,0.7649999999996453
1540,2095.12,2.1450000000004366
1541,2096.55,0.7349999999996726
1542,2097.04,2.459999999999809
1543,2098.68,0.7350000000003547
1544,2099.17,2.0549999999998363
1545,2100.54,0.7650000000003274
1546,2101.05,2.25
1547,2102.55,0.8249999999995907
1548,2103.1,1.6499999999998636
1549,2104.2,1.245000000000573
1550,2105.03,4.964999999999918
1551,2108.34,2.5199999999997544
1552,2110.02,1.4249999999997272
1553,2110.97,2.415000000000191
1554,2112.58,2.1750000000004093
1555,2114.03,1.2749999999998636
1556,2114.88,2.2200000000000273
1557,2116.36,2.369999999999891
1558,2117.94,3.1050000000002456
1559,2120.01,3.2699999999997544
1560,2122.19,1.169999999999618
1561,2122.97,2.835000000000491
1562,2124.86,0.43499999999994543
1563,2125.15,0.6749999999997272
1564,2125.6,2.0100000000002183
1565,2126.94,2.3550000000002456
1566,2128.51,1.9949999999998909
1567,2129.84,1.6799999999998363
1568,2130.96,2.339999999999918
1569,2132.52,3.2699999999997544
1570,2134.7,0.705000000000382
1571,2135.17,0.8699999999998909
1572,2135.75,2.1449999999997544
1573,2137.18,1.3650000000004638
1574,2138.09,1.6199999999998909
1575,2139.17,1.7699999999997544
1576,2140.35,1.0650000000000546
1577,2141.06,1.9349999999999454
1578,2142.35,3.4049999999999727
1579,2144.62,2.9700000000000273
1580,2146.6,4.649999999999864
1581,2149.7,1.9049999999999727
1582,2150.97,2.0250000000005457
1583,2152.32,3.3299999999997
1584,2154.54,0.915000000000191
1585,2155.15,2.130000000000109
1586,2156.57,0.7049999999996999
1587,2157.04,1.3800000000001091
1588,2157.96,1.4400000000000546
1589,2158.92,2.4299999999998363
1590,2160.54,0.7200000000000273
1591,2161.02,2.4750000000001364
1592,2162.67,2.744999999999891
1593,2164.5,0.959999999999809
1594,2165.14,1.3350000000004911
1595,2166.03,1.6649999999995089
1596,2167.14,2.115000000000464
1597,2168.55,1.004999999999427
1598,2169.22,2.0100000000002183
1599,2170.56,1.334999999999809
1600,2171.45,2.370000000000573
1601,2173.03,2.384999999999536
1602,2174.62,2.2799999999999727
1603,2176.14,1.0050000000001091
1604,2176.81,2.040000000000191
1605,2178.17,1.1399999999996453
1606,2178.93,2.1900000000000546
1607,2180.39,3.1050000000002456
1608,2182.46,4.304999999999836
1609,2185.33,1.8900000000003274
1610,2186.59,2.2799999999999727
1611,2188.11,1.0650000000000546
1612,2188.82,2.5650000000000546
1613,2190.53,2.2349999999996726
1614,2192.02,1.6350000000002183
1615,2193.11,2.1900000000000546
1616,2194.57,3.254999999999427
1617,2196.74,0.42000000000030013
1618,2197.02,2.369999999999891
1619,2198.6,3.075000000000273
1620,2200.65,0.7049999999996999
1621,2201.12,1.1400000000003274
1622,2201.88,2.039999999999509
1623,2203.24,2.040000000000191
1624,2204.6,1.9049999999999727
1625,2205.87,2.0549999999998363
1626,2207.24,2.1900000000000546
1627,2208.7,0.5850000000004911
1628,2209.09,1.3199999999994816
1629,2209.97,3.9450000000001637
1630,2212.6,0.7350000000003547
1631,2213.09,2.160000000000082
1632,2214.53,2.9549999999997
1633,2216.5,2.3850000000002183
1634,2218.09,1.2749999999998636
1635,2218.94,2.2200000000000273
1636,2220.42,3.1799999999998363
1637,2222.54,2.7600000000002183
1638,2224.38,2.549999999999727
1639,2226.08,1.6050000000002456
1640,2227.15,2.3099999999999454
1641,2228.69,0.6000000000001364
1642,2229.09,2.25
1643,2230.59,1.2149999999999181
1644,2231.4,2.25
1645,2232.9,2.1000000000001364
1646,2234.3,2.549999999999727
1647,2236.0,1.9500000000002728
1648,2237.3,1.9349999999999454
1649,2238.59,0.6600000000000819
1650,2239.03,2.459999999999809
1651,2240.67,0.6300000000001091
1652,2241.09,2.2049999999997
1653,2242.56,2.910000000000082
1654,2244.5,0.8099999999999454
1655,2245.04,2.2950000000003
1656,2246.57,0.8099999999999454
1657,2247.11,1.1099999999996726
1658,2247.85,1.4100000000000819
1659,2248.79,1.7550000000001091
1660,2249.96,3.839999999999918
1661,2252.52,0.8250000000002728
1662,2253.07,1.2899999999995089
1663,2253.93,1.9500000000002728
1664,2255.23,2.1149999999997817
1665,2256.64,0.75
1666,2257.14,2.339999999999918
1667,2258.7,2.0550000000005184
1668,2260.07,3.7349999999996726
1669,2262.56,3.089999999999918
1670,2264.62,2.1000000000001364
1671,2266.02,1.4249999999997272
1672,2266.97,2.3100000000006276
1673,2268.51,2.3549999999995634
1674,2270.08,1.7700000000004366
1675,2271.26,2.129999999999427
1676,2272.68,0.5250000000005457
1677,2273.03,2.1149999999997817
1678,2274.44,0.8850000000002183
1679,2275.03,2.2649999999996453
1680,2276.54,2.9700000000000273
1681,2278.52,0.8250000000002728
1682,2279.07,2.25
1683,2280.57,3.2699999999997544
1684,2282.75,0.7049999999996999
1685,2283.22,1.8150000000000546
1686,2284.43,0.915000000000191
1687,2285.04,2.339999999999918
1688,2286.6,2.1450000000004366
1689,2288.03,2.0699999999994816
1690,2289.41,2.2350000000003547
1691,2290.9,2.3999999999998636
1692,2292.5,0.8550000000002456
1693,2293.07,2.414999999999509
1694,2294.68,2.130000000000109
1695,2296.1,1.830000000000382
1696,2297.32,2.4449999999994816
1697,2298.95,0.9600000000004911
1698,2299.59,1.9049999999999727
1699,2300.86,2.6549999999999727
1700,2302.63,0.7649999999996453
1701,2303.14,1.7100000000004911
1702,2304.28,2.4449999999994816
1703,2305.91,1.8600000000003547
1704,2307.15,0.7649999999996453
1705,2307.66,1.7250000000001364
1706,2308.81,2.6700000000003
1707,2310.59,3.1499999999998636
1708,2312.69,2.1449999999997544
1709,2314.12,1.1700000000003001
1710,2314.9,5.160000000000082
1711,2318.34,3.419999999999618
1712,2320.62,0.6000000000001364
1713,2321.02,1.2600000000002183
1714,2321.86,1.6349999999995362
1715,2322.95,1.665000000000191
1716,2324.06,1.5599999999999454
1717,2325.1,1.9500000000002728
1718,2326.4,2.415000000000191
1719,2328.01,1.2599999999995362
1720,2328.85,2.535000000000082
1721,2330.54,1.0050000000001091
1722,2331.21,1.8899999999996453
1723,2332.47,2.415000000000191
1724,2334.08,1.2000000000002728
1725,2334.88,2.535000000000082
1726,2336.57,3.0749999999995907
1727,2338.62,2.490000000000464
1728,2340.28,1.9349999999999454
1729,2341.57,1.8599999999996726
1730,2342.81,2.2950000000003
1731,2344.34,3.584999999999809
1732,2346.73,0.5700000000001637
1733,2347.11,2.1000000000001364
1734,2348.51,1.3649999999997817
1735,2349.42,2.1149999999997817
1736,2350.83,2.6549999999999727
1737,2352.6,2.2200000000000273
1738,2354.08,1.5750000000002728
1739,2355.13,2.0700000000001637
1740,2356.51,0.7799999999999727
1741,2357.03,5.1599999999994
1742,2360.47,2.2950000000003
1743,2362.0,1.7999999999997272
1744,2363.2,0.495000000000573
1745,2363.53,1.8599999999996726
1746,2364.77,2.3550000000002456
1747,2366.34,2.2349999999996726
1748,2367.83,3.3900000000003274
1749,2370.09,1.4249999999997272
1750,2371.04,2.325000000000273
1751,2372.59,2.880000000000109
1752,2374.51,0.7649999999996453
1753,2375.02,2.3550000000002456
1754,2376.59,0.7049999999996999
1755,2377.06,2.25
1756,2378.56,3.0450000000003
1757,2380.59,0.8399999999999181
1758,2381.15,0.6749999999997272
1759,2381.6,1.7550000000001091
1760,2382.77,1.2449999999998909
1761,2383.6,1.9349999999999454
1762,2384.89,1.5599999999999454
1763,2385.93,2.0100000000002183
1764,2387.27,2.3850000000002183
1765,2388.86,2.3999999999998636
1766,2390.46,0.8699999999998909
1767,2391.04,2.325000000000273
1768,2392.59,0.8999999999998636
1769,2393.19,1.6950000000001637
1770,2394.32,3.6149999999997817
1771,2396.73,3.209999999999809
1772,2398.87,2.460000000000491
1773,2400.51,2.8649999999997817
1774,2402.42,1.4849999999996726
1775,2403.41,2.4750000000001364
1776,2405.06,1.1100000000003547
1777,2405.8,3.8249999999995907
1778,2408.35,2.5500000000004093
1779,2410.05,1.3199999999994816
1780,2410.93,1.9349999999999454
1781,2412.22,2.745000000000573
1782,2414.05,1.544999999999618
1783,2415.08,2.3999999999998636
1784,2416.68,1.7550000000001091
1785,2417.85,1.9800000000002456
1786,2419.17,1.8599999999996726
1787,2420.41,2.460000000000491
1788,2422.05,1.4400000000000546
1789,2423.01,1.9349999999999454
1790,2424.3,2.3249999999995907
1791,2425.85,2.084999999999809
1792,2427.24,1.875
1793,2428.49,0.8250000000002728
1794,2429.04,1.4850000000003547
1795,2430.03,1.7699999999997544
1796,2431.21,2.174999999999727
1797,2432.66,5.684999999999945
1798,2436.45,0.5250000000005457
1799,2436.8,5.399999999999864
1800,2440.4,3.165000000000191
1801,2442.51,2.6999999999995907
1802,2444.31,1.0350000000000819
1803,2445.0,2.2650000000003274
1804,2446.51,0.7349999999996726
1805,2447.0,2.325000000000273
1806,2448.55,0.8399999999999181
1807,2449.11,2.084999999999809
1808,2450.5,0.8250000000002728
1809,2451.05,2.174999999999727
1810,2452.5,0.75
1811,2453.0,2.2650000000003274
1812,2454.51,0.75
1813,2455.01,2.3099999999999454
1814,2456.55,0.6749999999997272
1815,2457.0,2.339999999999918
1816,2458.56,0.6750000000004093
1817,2459.01,2.3249999999995907
1818,2460.56,0.6600000000000819
1819,2461.0,2.25
1820,2462.5,3.075000000000273
1821,2464.55,0.959999999999809
1822,2465.19,1.9649999999999181
1823,2466.5,3.0150000000003274
1824,2468.51,1.1099999999996726
1825,2469.25,1.9949999999998909
1826,2470.58,0.6750000000004093
1827,2471.03,2.339999999999918
1828,2472.59,2.9549999999997
1829,2474.56,0.705000000000382
1830,2475.03,2.2799999999999727
1831,2476.55,1.004999999999427
1832,2477.22,1.995000000000573
1833,2478.55,0.6900000000000546
1834,2479.01,2.3249999999995907
1835,2480.56,0.7200000000000273
1836,2481.04,2.535000000000082
1837,2482.73,0.46499999999991815
1838,2483.04,2.5650000000000546
1839,2484.75,0.5100000000002183
1840,2485.09,1.7399999999997817
1841,2486.25,0.915000000000191
1842,2486.86,2.384999999999536
1843,2488.45,2.4750000000001364
1844,2490.1,1.4250000000004093
1845,2491.05,1.4549999999996999
1846,2492.02,1.4549999999996999
1847,2492.99,2.2950000000003
1848,2494.52,1.1400000000003274
1849,2495.28,1.6799999999998363
1850,2496.4,2.415000000000191
1851,2498.01,1.5299999999999727
1852,2499.03,2.339999999999918
1853,2500.59,0.6449999999997544
1854,2501.02,2.4750000000001364
1855,2502.67,2.2200000000000273
1856,2504.15,1.2149999999999181
1857,2504.96,2.0549999999998363
1858,2506.33,1.2449999999998909
1859,2507.16,2.339999999999918
1860,2508.72,0.6600000000000819
1861,2509.16,2.0250000000005457
1862,2510.51,2.3099999999999454
1863,2512.05,1.7849999999993997
1864,2513.24,2.115000000000464
1865,2514.65,0.6449999999997544
1866,2515.08,2.205000000000382
1867,2516.55,3.299999999999727
1868,2518.75,5.625
1869,2522.5,3.1499999999998636
1870,2524.6,1.0350000000000819
1871,2525.29,1.5450000000003001
1872,2526.32,1.0799999999996999
1873,2527.04,1.5299999999999727
1874,2528.06,3.7950000000003
1875,2530.59,2.6549999999999727
1876,2532.36,0.9750000000001364
1877,2533.01,2.549999999999727
1878,2534.71,3.044999999999618
1879,2536.74,0.43500000000062755
1880,2537.03,2.3099999999999454
1881,2538.57,0.9299999999998363
1882,2539.19,2.1000000000001364
1883,2540.59,0.7799999999999727
1884,2541.11,2.1000000000001364
1885,2542.51,2.8949999999997544
1886,2544.44,2.3999999999998636
1887,2546.04,1.1400000000003274
1888,2546.8,1.6799999999998363
1889,2547.92,3.7349999999996726
1890,2550.41,2.5650000000000546
1891,2552.12,1.5750000000002728
1892,2553.17,2.1449999999997544
1893,2554.6,0.7200000000000273
1894,2555.08,1.3049999999998363
1895,2555.95,4.230000000000246
1896,2558.77,0.45000000000027285
1897,2559.07,2.160000000000082
1898,2560.51,2.339999999999918
1899,2562.07,1.2599999999995362
1900,2562.91,2.1900000000000546
1901,2564.37,1.5150000000003274
1902,2565.38,2.160000000000082
1903,2566.82,1.9049999999999727
1904,2568.09,1.6949999999994816
1905,2569.22,1.290000000000191
1906,2570.08,3.869999999999891
1907,2572.66,0.5850000000004911
1908,2573.05,2.2049999999997
1909,2574.52,3.1499999999998636
1910,2576.62,0.5850000000004911
1911,2577.01,1.4849999999996726
1912,2578.0,4.125
1913,2580.75,0.45000000000027285
1914,2581.05,2.459999999999809
1915,2582.69,2.25
1916,2584.19,1.3200000000001637
1917,2585.07,2.3249999999995907
1918,2586.62,0.8250000000002728
1919,2587.17,1.9949999999998909
1920,2588.5,3.6000000000001364
1921,2590.9,2.084999999999809
1922,2592.29,1.4100000000000819
1923,2593.23,2.040000000000191
1924,2594.59,3.164999999999509
1925,2596.7,0.6150000000004638
1926,2597.11,1.2149999999999181
1927,2597.92,3.119999999999891
1928,2600.0,1.2749999999998636
1929,2600.85,2.6549999999999727
1930,2602.62,0.705000000000382
1931,2603.09,2.339999999999918
1932,2604.65,1.7999999999997272
1933,2605.85,1.6050000000002456
1934,2606.92,2.669999999999618
1935,2608.7,2.9250000000004093
1936,2610.65,0.5249999999998636
1937,2611.0,0.8399999999999181
1938,2611.56,1.8900000000003274
1939,2612.82,1.6349999999995362
1940,2613.91,2.3550000000002456
1941,2615.48,1.2600000000002183
1942,2616.32,2.369999999999891
1943,2617.9,1.4249999999997272
1944,2618.85,1.3950000000004366
1945,2619.78,1.8149999999993724
1946,2620.99,1.5900000000006003
1947,2622.05,1.0950000000000273
1948,2622.78,6.345000000000027
1949,2627.01,3.419999999999618
1950,2629.29,10.860000000000355
1951,2636.53,0.7349999999996726
1952,2637.02,1.6050000000002456
1953,2638.09,1.1399999999996453
1954,2638.85,2.834999999999809
1955,2640.74,0.40500000000065484
1956,2641.01,1.5299999999999727
1957,2642.03,1.334999999999809
1958,2642.92,2.369999999999891
1959,2644.5,0.7650000000003274
1960,2645.01,2.2349999999996726
1961,2646.5,0.7650000000003274
1962,2647.01,2.25
1963,2648.51,0.7649999999996453
1964,2649.02,2.2350000000003547
1965,2650.51,0.8549999999995634
1966,2651.08,5.205000000000382
1967,2654.55,0.7200000000000273
1968,2655.03,2.2349999999996726
1969,2656.52,0.7350000000003547
1970,2657.01,2.594999999999345
1971,2658.74,0.5250000000005457
1972,2659.09,2.369999999999891
1973,2660.67,0.584999999999809
1974,2661.06,2.1750000000004093
1975,2662.51,0.7349999999996726
1976,2663.0,1.8900000000003274
1977,2664.26,1.6949999999994816
1978,2665.39,1.6950000000001637
1979,2666.52,0.7200000000000273
1980,2667.0,2.2799999999999727
1981,2668.52,0.7200000000000273
1982,2669.0,2.325000000000273
1983,2670.55,0.6749999999997272
1984,2671.0,2.459999999999809
1985,2672.64,0.8999999999998636
1986,2673.24,1.9050000000006548
1987,2674.51,0.7349999999996726
1988,2675.0,1.9649999999999181
1989,2676.31,3.540000000000191
1990,2678.67,2.0700000000001637
1991,2680.05,1.2149999999999181
1992,2680.86,2.5950000000000273
1993,2682.59,3.164999999999509
1994,2684.7,0.5100000000002183
1995,2685.04,2.205000000000382
1996,2686.51,0.8399999999999181
1997,2687.07,2.2349999999996726
1998,2688.56,2.8949999999997544
1999,2690.49,2.3400000000006003
2000,2692.05,1.5149999999996453
2001,2693.06,1.8900000000003274
2002,2694.32,1.3499999999994543
2003,2695.22,2.2350000000003547
2004,2696.71,0.6600000000000819
2005,2697.15,2.040000000000191
2006,2698.51,0.9299999999998363
2007,2699.13,2.3999999999998636
2008,2700.73,0.6900000000000546
2009,2701.19,1.2300000000002456
2010,2702.01,1.8449999999993452
2011,2703.24,1.5450000000003001
2012,2704.27,3.375
2013,2706.52,2.325000000000273
2014,2708.07,3.494999999999891
2015,2710.4,1.3200000000001637
2016,2711.28,2.2049999999997
2017,2712.75,1.9200000000003001
2018,2714.03,1.7249999999994543
2019,2715.18,2.2950000000003
2020,2716.71,5.714999999999918
2021,2720.52,0.7350000000003547
2022,2721.01,2.2349999999996726
2023,2722.5,0.7799999999999727
2024,2723.02,2.325000000000273
2025,2724.57,0.6600000000000819
2026,2725.01,2.2799999999999727
2027,2726.53,0.7349999999996726
2028,2727.02,2.339999999999918
2029,2728.58,0.8399999999999181
2030,2729.14,2.085000000000491
2031,2730.53,0.7649999999996453
2032,2731.04,1.7999999999997272
2033,2732.24,0.9900000000004638
2034,2732.9,1.8599999999996726
2035,2734.14,1.9949999999998909
2036,2735.47,1.0500000000004093
2037,2736.17,1.0350000000000819
2038,2736.86,2.4899999999997817
2039,2738.52,0.7950000000003001
2040,2739.05,1.9949999999998909
2041,2740.38,1.0650000000000546
2042,2741.09,1.9649999999999181
2043,2742.4,1.0650000000000546
2044,2743.11,2.2049999999997
2045,2744.58,2.1750000000004093
2046,2746.03,1.1399999999996453
2047,2746.79,2.580000000000382
2048,2748.51,1.0799999999996999
2049,2749.23,2.2649999999996453
2050,2750.74,0.40500000000065484
2051,2751.01,2.339999999999918
2052,2752.57,2.174999999999727
2053,2754.02,1.1849999999999454
2054,2754.81,2.4899999999997817
2055,2756.47,2.460000000000491
2056,2758.11,1.1999999999995907
2057,2758.91,2.5200000000004366
2058,2760.59,2.4899999999997817
2059,2762.25,1.2600000000002183
2060,2763.09,1.4400000000000546
2061,2764.05,1.3649999999997817
2062,2764.96,2.6399999999996453
2063,2766.72,0.495000000000573
2064,2767.05,2.1599999999993997
2065,2768.49,2.745000000000573
2066,2770.32,1.2749999999998636
2067,2771.17,2.1149999999997817
2068,2772.58,0.8999999999998636
2069,2773.18,2.0250000000005457
2070,2774.53,0.75
2071,2775.03,1.2749999999998636
2072,2775.88,1.6199999999998909
2073,2776.96,2.040000000000191
2074,2778.32,3.629999999999427
2075,2780.74,0.6000000000001364
2076,2781.14,0.1800000000005184
2077,2781.26,2.4749999999994543
2078,2782.91,1.6800000000005184
2079,2784.03,1.4700000000000273
2080,2785.01,2.3099999999999454
2081,2786.55,0.7200000000000273
2082,2787.03,1.6199999999998909
2083,2788.11,1.2749999999998636
2084,2788.96,1.2749999999998636
2085,2789.81,4.214999999999918
2086,2792.62,3.0450000000003
2087,2794.65,0.540000000000191
2088,2795.01,0.794999999999618
2089,2795.54,2.205000000000382
2090,2797.01,1.5599999999999454
2091,2798.05,1.3049999999998363
2092,2798.92,2.4299999999998363
2093,2800.54,3.165000000000191
2094,2802.65,0.5249999999998636
2095,2803.0,3.3900000000003274
2096,2805.26,0.9149999999995089
2097,2805.87,3.6900000000000546
2098,2808.33,6.510000000000218
2099,2812.67,2.7299999999995634
2100,2814.49,1.5750000000002728
2101,2815.54,1.9949999999998909
2102,2816.87,2.5500000000004093
2103,2818.57,2.8649999999997817
2104,2820.48,1.5149999999996453
2105,2821.49,1.9500000000002728
2106,2822.79,2.0549999999998363
2107,2824.16,1.4100000000000819
2108,2825.1,1.1549999999999727
2109,2825.87,3.960000000000491
2110,2828.51,3.1799999999998363
2111,2830.63,3.1049999999995634
2112,2832.7,0.5100000000002183
2113,2833.04,1.4400000000000546
2114,2834.0,1.7399999999997817
2115,2835.16,1.290000000000191
2116,2836.02,1.7250000000001364
2117,2837.17,1.0350000000000819
2118,2837.86,7.109999999999673
2119,2842.6,0.6750000000004093
2120,2843.05,1.544999999999618
2121,2844.08,1.5450000000003001
2122,2845.11,2.1000000000001364
2123,2846.51,0.9899999999997817
2124,2847.17,2.0249999999998636
2125,2848.52,3.1350000000002183
2126,2850.61,0.7200000000000273
2127,2851.09,1.4549999999996999
2128,2852.06,1.1100000000003547
2129,2852.8,2.879999999999427
2130,2854.72,0.5100000000002183
2131,2855.06,1.334999999999809
2132,2855.95,1.3800000000001091
2133,2856.87,2.0549999999998363
2134,2858.24,1.125
2135,2858.99,1.9650000000006003
2136,2860.3,1.2149999999999181
2137,2861.11,1.334999999999809
2138,2862.0,1.2749999999998636
2139,2862.85,2.6549999999999727
2140,2864.62,0.6150000000004638
2141,2865.03,1.5749999999995907
2142,2866.08,1.290000000000191
2143,2866.94,2.3999999999998636
2144,2868.54,1.2149999999999181
2145,2869.35,2.4450000000001637
2146,2870.98,1.2449999999998909
2147,2871.81,4.080000000000382
2148,2874.53,0.7799999999999727
2149,2875.05,2.1900000000000546
2150,2876.51,3.344999999999345
2151,2878.74,1.5300000000006548
2152,2879.76,1.5299999999999727
2153,2880.78,1.919999999999618
2154,2882.06,1.709999999999809
2155,2883.2,2.2200000000000273
2156,2884.68,2.7600000000002183
2157,2886.52,0.7350000000003547
2158,2887.01,2.594999999999345
2159,2888.74,0.45000000000027285
2160,2889.04,2.6549999999999727
2161,2890.81,0.28500000000008185
2162,2891.0,2.25
2163,2892.5,0.7799999999999727
2164,2893.02,1.8600000000003547
2165,2894.26,1.1849999999999454
2166,2895.05,0.8099999999999454
2167,2895.59,1.7399999999997817
2168,2896.75,2.325000000000273
2169,2898.3,2.9849999999996726
2170,2900.29,2.714999999999918
2171,2902.1,1.0650000000000546
2172,2902.81,1.8000000000004093
2173,2904.01,1.8299999999996999
2174,2905.23,8.325000000000273
2175,2910.78,0.3599999999996726
2176,2911.02,9.0
2177,2917.02,2.339999999999918
2178,2918.58,0.7650000000003274
2179,2919.09,1.709999999999809
2180,2920.23,0.8099999999999454
2181,2920.77,2.625
2182,2922.52,0.8399999999999181
2183,2923.08,2.2350000000003547
2184,2924.57,0.75
2185,2925.07,1.7399999999997817
2186,2926.23,1.5
2187,2927.23,2.7300000000002456
2188,2929.05,2.174999999999727
2189,2930.5,0.7799999999999727
2190,2931.02,1.9049999999999727
2191,2932.29,1.0650000000000546
2192,2933.0,1.9649999999999181
2193,2934.31,1.080000000000382
2194,2935.03,1.9499999999995907
2195,2936.33,1.080000000000382
2196,2937.05,2.009999999999536
2197,2938.39,1.125
2198,2939.14,3.3450000000000273
2199,2941.37,1.9949999999998909
2200,2942.7,2.490000000000464
2201,2944.36,3.209999999999809
2202,2946.5,0.75
2203,2947.0,2.2650000000003274
2204,2948.51,0.8549999999995634
2205,2949.08,2.1450000000004366
2206,2950.51,3.1949999999994816
2207,2952.64,0.540000000000191
2208,2953.0,2.1000000000001364
2209,2954.4,0.8999999999998636
2210,2955.0,1.2300000000002456
2211,2955.82,1.709999999999809
2212,2956.96,1.6350000000002183
2213,2958.05,1.2449999999998909
2214,2958.88,1.4549999999996999
2215,2959.85,1.8000000000004093
2216,2961.05,1.8299999999996999
2217,2962.27,1.334999999999809
2218,2963.16,1.5599999999999454
2219,2964.2,3.615000000000464
2220,2966.61,1.919999999999618
2221,2967.89,3.869999999999891
2222,2970.47,0.8550000000002456
2223,2971.04,1.455000000000382
2224,2972.01,1.5599999999999454
2225,2973.05,2.2799999999999727
2226,2974.57,2.6849999999999454
2227,2976.36,1.1399999999996453
2228,2977.12,2.3550000000002456
2229,2978.69,0.46499999999991815
2230,2979.0,2.325000000000273
2231,2980.55,0.7049999999996999
2232,2981.02,1.5299999999999727
2233,2982.04,1.1849999999999454
2234,2982.83,2.2799999999999727
2235,2984.35,0.9750000000001364
2236,2985.0,2.369999999999891
2237,2986.58,0.6450000000004366
2238,2987.01,2.5199999999997544
2239,2988.69,1.9949999999998909
2240,2990.02,1.9500000000002728
2241,2991.32,1.5149999999996453
2242,2992.33,3.3900000000003274
2243,2994.59,0.8099999999999454
2244,2995.13,2.1149999999997817
2245,2996.54,0.705000000000382
2246,2997.01,2.294999999999618
2247,2998.54,0.7350000000003547
2248,2999.03,2.294999999999618
2249,3000.56,0.7799999999999727
2250,3001.08,2.3099999999999454
2251,3002.62,0.7650000000003274
2252,3003.13,2.1449999999997544
2253,3004.56,0.705000000000382
2254,3005.03,1.9949999999998909
2255,3006.36,0.959999999999809
2256,3007.0,2.4899999999997817
2257,3008.66,2.1900000000000546
2258,3010.12,1.830000000000382
2259,3011.34,1.7999999999997272
2260,3012.54,3.1799999999998363
2261,3014.66,0.8250000000002728
2262,3015.21,2.0549999999998363
2263,3016.58,0.6900000000000546
2264,3017.04,2.415000000000191
2265,3018.65,0.5249999999998636
2266,3019.0,1.4100000000000819
2267,3019.94,1.7250000000001364
2268,3021.09,1.3649999999997817
2269,3022.0,1.2749999999998636
2270,3022.85,1.4250000000004093
2271,3023.8,1.6199999999998909
2272,3024.88,1.5299999999999727
2273,3025.9,1.4249999999997272
2274,3026.85,1.9500000000002728
2275,3028.15,1.125
2276,3028.9,2.759999999999536
2277,3030.74,0.42000000000030013
2278,3031.02,2.3999999999998636
2279,3032.62,0.6600000000000819
2280,3033.06,1.6350000000002183
2281,3034.15,1.3049999999998363
2282,3035.02,2.9850000000003547
2283,3037.01,2.504999999999427
2284,3038.68,0.5550000000005184
2285,3039.05,1.4099999999993997
2286,3039.99,1.6350000000002183
2287,3041.08,1.3049999999998363
2288,3041.95,1.8600000000003547
2289,3043.19,1.9049999999999727
2290,3044.46,2.549999999999727
2291,3046.16,1.0650000000000546
2292,3046.87,2.535000000000082
2293,3048.56,2.9400000000000546
2294,3050.52,1.8450000000000273
2295,3051.75,1.709999999999809
2296,3052.89,2.5200000000004366
2297,3054.57,3.0599999999999454
2298,3056.61,0.6749999999997272
2299,3057.06,1.334999999999809
2300,3057.95,1.9049999999999727
2301,3059.22,1.9800000000002456
2302,3060.54,0.6900000000000546
2303,3061.0,1.2600000000002183
2304,3061.84,2.0549999999998363
2305,3063.21,1.3049999999998363
2306,3064.08,1.6350000000002183
2307,3065.17,1.4249999999997272
2308,3066.12,1.5
2309,3067.12,2.1000000000001364
2310,3068.52,3.1350000000002183
2311,3070.61,0.6000000000001364
2312,3071.01,1.3499999999994543
2313,3071.91,1.8450000000000273
2314,3073.14,1.1400000000003274
2315,3073.9,4.005000000000109
2316,3076.57,2.2200000000000273
2317,3078.05,3.75
2318,3080.55,1.004999999999427
2319,3081.22,1.8150000000000546
2320,3082.43,2.5200000000004366
2321,3084.11,1.2449999999998909
2322,3084.94,1.6199999999998909
2323,3086.02,1.334999999999809
2324,3086.91,2.415000000000191
2325,3088.52,1.3949999999997544
2326,3089.45,4.455000000000382
2327,3092.42,3.089999999999918
2328,3094.48,3.9750000000001364
2329,3097.13,1.3949999999997544
2330,3098.06,1.6799999999998363
2331,3099.18,1.3800000000001091
2332,3100.1,1.5
2333,3101.1,2.1750000000004093
2334,3102.55,3.7049999999997
2335,3105.02,2.2200000000000273
2336,3106.5,0.9750000000001364
2337,3107.15,2.25
2338,3108.65,0.9299999999998363
2339,3109.27,1.8600000000003547
2340,3110.51,0.7799999999999727
2341,3111.03,2.2200000000000273
2342,3112.51,1.0799999999996999
2343,3113.23,1.9349999999999454
2344,3114.52,0.7350000000003547
2345,3115.01,2.7749999999998636
2346,3116.86,0.26999999999975444
2347,3117.04,2.3850000000002183
2348,3118.63,0.9299999999998363
2349,3119.25,1.9200000000003001
2350,3120.53,2.879999999999427
2351,3122.45,3.1500000000005457
2352,3124.55,0.7200000000000273
2353,3125.03,2.414999999999509
2354,3126.64,2.714999999999918
2355,3128.45,3.1350000000002183
2356,3130.54,2.6700000000003
2357,3132.32,1.3649999999997817
2358,3133.23,1.9949999999998909
2359,3134.56,0.7950000000003001
2360,3135.09,2.339999999999918
2361,3136.65,0.5700000000001637
2362,3137.03,1.2749999999998636
2363,3137.88,1.6349999999995362
2364,3138.97,1.3650000000004638
2365,3139.88,1.5
2366,3140.88,1.6199999999998909
2367,3141.96,1.875
2368,3143.21,1.9800000000002456
2369,3144.53,0.7200000000000273
2370,3145.01,1.1399999999996453
2371,3145.77,2.040000000000191
2372,3147.13,1.919999999999618
2373,3148.41,2.040000000000191
2374,3149.77,4.845000000000027
2375,3153.0,2.700000000000273
2376,3154.8,0.4499999999995907
2377,3155.1,2.160000000000082
2378,3156.54,3.089999999999918
2379,3158.6,2.130000000000109
2380,3160.02,1.665000000000191
2381,3161.13,0.6600000000000819
2382,3161.57,1.8150000000000546
2383,3162.78,2.625
2384,3164.53,1.9799999999995634
2385,3165.85,3.2700000000004366
2386,3168.03,1.3649999999997817
2387,3168.94,1.5899999999999181
2388,3170.0,1.8299999999996999
2389,3171.22,0.5100000000002183
2390,3171.56,1.7850000000000819
2391,3172.75,2.6549999999999727
2392,3174.52,2.2650000000003274
2393,3176.03,1.3949999999997544
2394,3176.96,2.0249999999998636
2395,3178.31,3.4049999999999727
2396,3180.58,2.3550000000002456
2397,3182.15,1.3949999999997544
2398,3183.08,2.040000000000191
2399,3184.44,0.9450000000001637
2400,3185.07,2.160000000000082
2401,3186.51,2.3099999999999454
2402,3188.05,1.2449999999998909
2403,3188.88,4.769999999999754
2404,3192.06,1.2000000000002728
2405,3192.86,1.709999999999809
2406,3194.0,1.665000000000191
2407,3195.11,1.2599999999995362
2408,3195.95,3.9450000000001637
2409,3198.58,2.9400000000000546
2410,3200.54,3.1050000000002456
2411,3202.61,2.130000000000109
2412,3204.03,4.049999999999727
2413,3206.73,1.9949999999998909
2414,3208.06,2.9700000000000273
2415,3210.04,1.5
2416,3211.04,2.0700000000001637
2417,3212.42,2.4899999999997817
2418,3214.08,1.2000000000002728
2419,3214.88,1.3200000000001637
2420,3215.76,2.1149999999997817
2421,3217.17,2.25
2422,3218.67,0.6000000000001364
2423,3219.07,2.4449999999994816
2424,3220.7,3.0
2425,3222.7,0.5700000000001637
2426,3223.08,4.395000000000437
2427,3226.01,1.4249999999997272
2428,3226.96,2.415000000000191
2429,3228.57,3.0749999999995907
2430,3230.62,0.7650000000003274
2431,3231.13,2.0549999999998363
2432,3232.5,2.3099999999999454
2433,3234.04,1.125
2434,3234.79,1.830000000000382
2435,3236.01,1.8599999999996726
2436,3237.25,1.9800000000002456
2437,3238.57,3.0299999999999727
2438,3240.59,21.0
2439,3254.59,0.6600000000000819
2440,3255.03,2.339999999999918
2441,3256.59,0.75
2442,3257.09,2.3549999999995634
2443,3258.66,0.5700000000001637
2444,3259.04,2.2950000000003
2445,3260.57,1.0350000000000819
2446,3261.26,1.3049999999998363
2447,3262.13,1.1099999999996726
2448,3262.87,1.5150000000003274
2449,3263.88,1.3649999999997817
2450,3264.79,2.174999999999727
2451,3266.24,1.0950000000000273
2452,3266.97,1.6500000000005457
2453,3268.07,1.1099999999996726
2454,3268.81,2.580000000000382
2455,3270.53,0.75
2456,3271.03,2.3549999999995634
2457,3272.6,0.8550000000002456
2458,3273.17,2.535000000000082
2459,3274.86,2.5199999999997544
2460,3276.54,2.325000000000273
2461,3278.09,1.4849999999996726
2462,3279.08,2.0249999999998636
2463,3280.43,6.345000000000027
2464,3284.66,2.8500000000001364
2465,3286.56,0.7350000000003547
2466,3287.05,1.0499999999997272
2467,3287.75,1.8900000000003274
2468,3289.01,1.1999999999995907
2469,3289.81,1.455000000000382
2470,3290.78,2.744999999999891
2471,3292.61,1.0799999999996999
2472,3293.33,1.7700000000004366
2473,3294.51,3.0299999999999727
2474,3296.53,3.254999999999427
2475,3298.7,0.48000000000024556
2476,3299.02,1.3200000000001637
2477,3299.9,1.5599999999999454
2478,3300.94,2.369999999999891
2479,3302.52,1.1849999999999454
2480,3303.31,1.6499999999998636
2481,3304.41,3.3150000000000546
2482,3306.62,0.5850000000004911
2483,3307.01,1.6649999999995089
2484,3308.12,1.080000000000382
2485,3308.84,3.3899999999996453
2486,3311.1,1.1400000000003274
2487,3311.86,1.4700000000000273
2488,3312.84,1.709999999999809
2489,3313.98,1.5299999999999727
2490,3315.0,2.2950000000003
2491,3316.53,0.7349999999996726
2492,3317.02,2.2799999999999727
2493,3318.54,0.8699999999998909
2494,3319.12,1.7850000000000819
2495,3320.31,1.0500000000004093
2496,3321.01,2.294999999999618
2497,3322.54,0.7200000000000273
2498,3323.02,2.1000000000001364
2499,3324.42,0.959999999999809
2500,3325.06,1.5150000000003274
2501,3326.07,1.4549999999996999
2502,3327.04,1.6499999999998636
2503,3328.14,1.5450000000003001
2504,3329.17,1.6350000000002183
2505,3330.26,4.109999999999673
2506,3333.0,2.4750000000001364
2507,3334.65,2.084999999999809
2508,3336.04,1.1100000000003547
2509,3336.78,2.834999999999809
2510,3338.67,0.5549999999998363
2511,3339.04,1.2149999999999181
2512,3339.85,1.6799999999998363
2513,3340.97,1.5750000000002728
2514,3342.02,1.6799999999998363
2515,3343.14,2.085000000000491
2516,3344.53,0.8099999999999454
2517,3345.07,2.2649999999996453
2518,3346.58,2.8649999999997817
2519,3348.49,2.955000000000382
2520,3350.46,3.4049999999999727
2521,3352.73,0.6300000000001091
2522,3353.15,2.130000000000109
2523,3354.57,0.7349999999996726
2524,3355.06,1.1400000000003274
2525,3355.82,1.6199999999998909
2526,3356.9,2.3999999999998636
2527,3358.5,5.804999999999836
2528,3362.37,3.285000000000082
2529,3364.56,3.1950000000001637
2530,3366.69,0.48000000000024556
2531,3367.01,2.5799999999997
2532,3368.73,0.48000000000024556
2533,3369.05,1.1399999999996453
2534,3369.81,1.6499999999998636
2535,3370.91,1.5150000000003274
2536,3371.92,1.7399999999997817
2537,3373.08,2.2350000000003547
2538,3374.57,1.004999999999427
2539,3375.24,1.9350000000006276
2540,3376.53,2.9849999999996726
2541,3378.52,0.7799999999999727
2542,3379.04,2.1900000000000546
2543,3380.5,0.9299999999998363
2544,3381.12,2.0700000000001637
2545,3382.5,0.9299999999998363
2546,3383.12,2.2200000000000273
2547,3384.6,1.080000000000382
2548,3385.32,1.6199999999998909
2549,3386.4,3.0
2550,3388.4,3.1499999999998636
2551,3390.5,2.9849999999996726
2552,3392.49,3.075000000000273
2553,3394.54,0.9899999999997817
2554,3395.2,3.3450000000000273
2555,3397.43,0.870000000000573
2556,3398.01,1.5149999999996453
2557,3399.02,1.5299999999999727
2558,3400.04,1.125
2559,3400.79,1.5899999999999181
2560,3401.85,1.4400000000000546
2561,3402.81,1.5450000000003001
2562,3403.84,1.4100000000000819
2563,3404.78,1.7849999999993997
2564,3405.97,1.5150000000003274
2565,3406.98,1.6350000000002183
2566,3408.07,1.1999999999995907
2567,3408.87,1.665000000000191
2568,3409.98,1.5899999999999181
2569,3411.04,1.334999999999809
2570,3411.93,1.5750000000002728
2571,3412.98,1.5299999999999727
2572,3414.0,1.7250000000001364
2573,3415.15,1.6950000000001637
2574,3416.28,3.0599999999999454
2575,3418.32,2.6849999999999454
2576,3420.11,1.3500000000001364
2577,3421.01,1.5899999999999181
2578,3422.07,1.0799999999996999
2579,3422.79,2.6100000000003547
2580,3424.53,2.6549999999999727
2581,3426.3,1.379999999999427
2582,3427.22,1.9650000000006003
2583,3428.53,0.75
2584,3429.03,2.384999999999536
2585,3430.62,0.7950000000003001
2586,3431.15,2.160000000000082
2587,3432.59,2.5950000000000273
2588,3434.32,3.0299999999999727
2589,3436.34,2.8949999999997544
2590,3438.27,1.2300000000002456
2591,3439.09,1.3199999999994816
2592,3439.97,1.3050000000005184
2593,3440.84,1.7699999999997544
2594,3442.02,1.1700000000003001
2595,3442.8,2.369999999999891
2596,3444.38,3.285000000000082
2597,3446.57,2.744999999999891
2598,3448.4,1.0499999999997272
2599,3449.1,1.4700000000000273
2600,3450.08,1.2300000000002456
2601,3450.9,2.6399999999996453
2602,3452.66,2.9250000000004093
2603,3454.61,2.759999999999536
2604,3456.45,2.745000000000573
2605,3458.28,2.6849999999999454
2606,3460.07,1.3649999999997817
2607,3460.98,1.5899999999999181
2608,3462.04,1.4249999999997272
2609,3462.99,1.2000000000002728
2610,3463.79,1.5450000000003001
2611,3464.82,2.8649999999997817
2612,3466.73,2.7600000000002183
2613,3468.57,2.789999999999509
2614,3470.43,5.415000000000191
2615,3474.04,1.1549999999999727
2616,3474.81,1.7399999999997817
2617,3475.97,1.7550000000001091
2618,3477.14,1.8000000000004093
2619,3478.34,1.2599999999995362
2620,3479.18,1.290000000000191
2621,3480.04,1.4249999999997272
2622,3480.99,1.6500000000005457
2623,3482.09,1.6649999999995089
2624,3483.2,2.0250000000005457
2625,3484.55,3.089999999999918
2626,3486.61,0.8849999999995362
2627,3487.2,1.9800000000002456
2628,3488.52,0.8399999999999181
2629,3489.08,1.6350000000002183
2630,3490.17,0.8850000000002183
2631,3490.76,2.6399999999996453
2632,3492.52,1.0050000000001091
2633,3493.19,2.3249999999995907
2634,3494.74,0.6750000000004093
2635,3495.19,1.6050000000002456
2636,3496.26,1.1399999999996453
2637,3497.02,2.2650000000003274
2638,3498.53,0.75
2639,3499.03,2.3549999999995634
2640,3500.6,0.6900000000000546
2641,3501.06,2.2799999999999727
2642,3502.58,1.1100000000003547
2643,3503.32,2.0549999999998363
2644,3504.69,2.714999999999918
2645,3506.5,0.8399999999999181
2646,3507.06,1.5899999999999181
2647,3508.12,0.9600000000004911
2648,3508.76,1.8899999999996453
2649,3510.02,1.0950000000000273
2650,3510.75,1.665000000000191
2651,3511.86,1.6499999999998636
2652,3512.96,1.6050000000002456
2653,3514.03,1.1549999999999727
2654,3514.8,2.5199999999997544
2655,3516.48,2.9700000000000273
2656,3518.46,3.089999999999918
2657,3520.52,2.549999999999727
2658,3522.22,1.080000000000382
2659,3522.94,2.4299999999998363
2660,3524.56,5.355000000000246
2661,3528.13,1.3200000000001637
2662,3529.01,1.4249999999997272
2663,3529.96,1.6499999999998636
2664,3531.06,1.5299999999999727
2665,3532.08,1.4400000000000546
2666,3533.04,1.5299999999999727
2667,3534.06,1.4250000000004093
2668,3535.01,1.5299999999999727
2669,3536.03,1.4249999999997272
2670,3536.98,1.6350000000002183
2671,3538.07,1.6349999999995362
2672,3539.16,2.085000000000491
2673,3540.55,3.0
2674,3542.55,2.759999999999536
2675,3544.39,1.1549999999999727
2676,3545.16,1.6199999999998909
2677,3546.24,1.4100000000000819
2678,3547.18,1.9800000000002456
2679,3548.5,2.5199999999997544
2680,3550.18,1.2300000000002456
2681,3551.0,1.5299999999999727
2682,3552.02,1.6199999999998909
2683,3553.1,1.4100000000000819
2684,3554.04,3.9450000000001637
2685,3556.67,0.540000000000191
2686,3557.03,1.5
2687,3558.03,1.4249999999997272
2688,3558.98,1.3949999999997544
2689,3559.91,1.4100000000000819
2690,3560.85,2.505000000000109
2691,3562.52,2.459999999999809
2692,3564.16,1.290000000000191
2693,3565.02,2.325000000000273
2694,3566.57,3.5249999999998636
2695,3568.92,2.6849999999999454
2696,3570.71,2.4299999999998363
2697,3572.33,1.3049999999998363
2698,3573.2,1.5900000000006003
2699,3574.26,3.209999999999809
2700,3576.4,1.0499999999997272
2701,3577.1,2.160000000000082
2702,3578.54,1.0350000000000819
2703,3579.23,2.2200000000000273
2704,3580.71,0.48000000000024556
2705,3581.03,1.754999999999427
2706,3582.2,1.125
2707,3582.95,2.115000000000464
2708,3584.36,3.044999999999618
2709,3586.39,1.1100000000003547
2710,3587.13,2.084999999999809
2711,3588.52,0.75
2712,3589.02,2.549999999999727
2713,3590.72,2.8500000000001364
2714,3592.62,3.1799999999998363
2715,3594.74,0.40500000000065484
2716,3595.01,1.9799999999995634
2717,3596.33,1.080000000000382
2718,3597.05,2.4299999999998363
2719,3598.67,2.2799999999999727
2720,3600.19,1.1849999999999454
2721,3600.98,2.2799999999999727
2722,3602.5,1.0950000000000273
2723,3603.23,1.1849999999999454
2724,3604.02,1.2600000000002183
2725,3604.86,4.875
2726,3608.11,1.2449999999998909
2727,3608.94,2.2649999999996453
2728,3610.45,2.325000000000273
2729,3612.0,1.2000000000002728
2730,3612.8,2.3549999999995634
2731,3614.37,1.3049999999998363
2732,3615.24,1.3050000000005184
2733,3616.11,1.4249999999997272
2734,3617.06,1.4250000000004093
2735,3618.01,1.3199999999994816
2736,3618.89,2.744999999999891
2737,3620.72,0.5100000000002183
2738,3621.06,2.2350000000003547
2739,3622.55,0.8999999999998636
2740,3623.15,2.2200000000000273
2741,3624.63,0.7649999999996453
2742,3625.14,1.7400000000004638
2743,3626.3,1.0950000000000273
2744,3627.03,3.0149999999996453
2745,3629.04,2.2799999999999727
2746,3630.56,0.8099999999999454
2747,3631.1,1.6499999999998636
2748,3632.2,0.870000000000573
2749,3632.78,2.6099999999996726
2750,3634.52,0.7950000000003001
2751,3635.05,2.369999999999891
2752,3636.63,0.8249999999995907
2753,3637.18,1.6800000000005184
2754,3638.3,3.3450000000000273
2755,3640.53,0.794999999999618
2756,3641.06,2.0100000000002183
2757,3642.4,1.0950000000000273
2758,3643.13,2.084999999999809
2759,3644.52,0.7350000000003547
2760,3645.01,2.294999999999618
2761,3646.54,0.6900000000000546
2762,3647.0,2.2950000000003
2763,3648.53,0.7049999999996999
2764,3649.0,2.339999999999918
2765,3650.56,2.5500000000004093
2766,3652.26,1.4249999999997272
2767,3653.21,1.9800000000002456
2768,3654.53,3.134999999999536
2769,3656.62,2.160000000000082
2770,3658.06,1.3200000000001637
2771,3658.94,2.9849999999996726
2772,3660.93,1.3500000000001364
2773,3661.83,1.5150000000003274
2774,3662.84,1.5899999999999181
2775,3663.9,1.6199999999998909
2776,3664.98,1.4700000000000273
2777,3665.96,1.5899999999999181
2778,3667.02,1.4400000000000546
2779,3667.98,1.5299999999999727
2780,3669.0,1.8900000000003274
2781,3670.26,4.125
2782,3673.01,2.414999999999509
2783,3674.62,0.7950000000003001
2784,3675.15,2.1000000000001364
2785,3676.55,2.174999999999727
2786,3678.0,1.334999999999809
2787,3678.89,2.415000000000191
2788,3680.5,0.7650000000003274
2789,3681.01,2.0699999999994816
2790,3682.39,1.2600000000002183
2791,3683.23,1.290000000000191
2792,3684.09,1.1399999999996453
2793,3684.85,2.415000000000191
2794,3686.46,1.0499999999997272
2795,3687.16,1.2600000000002183
2796,3688.0,1.2000000000002728
2797,3688.8,2.3999999999998636
2798,3690.4,1.0799999999996999
2799,3691.12,1.2149999999999181
2800,3691.93,1.245000000000573
2801,3692.76,3.8999999999998636
2802,3695.36,2.0549999999998363
2803,3696.73,0.43499999999994543
2804,3697.02,1.8900000000003274
2805,3698.28,1.2149999999999181
2806,3699.09,2.4449999999994816
2807,3700.72,0.45000000000027285
2808,3701.02,1.9049999999999727
2809,3702.29,1.1700000000003001
2810,3703.07,2.3999999999998636
2811,3704.67,2.4899999999997817
2812,3706.33,1.290000000000191
2813,3707.19,1.290000000000191
2814,3708.05,1.1999999999995907
2815,3708.85,2.5200000000004366
2816,3710.53,3.0299999999999727
2817,3712.55,0.6749999999997272
2818,3713.0,2.535000000000082
2819,3714.69,0.46499999999991815
2820,3715.0,1.9649999999999181
2821,3716.31,1.2300000000002456
2822,3717.13,2.414999999999509
2823,3718.74,2.655000000000655
2824,3720.51,0.8249999999995907
2825,3721.06,2.5199999999997544
2826,3722.74,2.5650000000000546
2827,3724.45,3.1050000000002456
2828,3726.52,0.8999999999998636
2829,3727.12,1.3200000000001637
2830,3728.0,1.1700000000003001
2831,3728.78,2.6849999999999454
2832,3730.57,2.5650000000000546
2833,3732.28,1.2299999999995634
2834,3733.1,1.2749999999998636
2835,3733.95,1.290000000000191
2836,3734.81,2.505000000000109
2837,3736.48,2.549999999999727
2838,3738.18,1.2000000000002728
2839,3738.98,1.2749999999998636
2840,3739.83,1.3950000000004366
2841,3740.76,2.6399999999996453
2842,3742.52,6.0450000000003
2843,3746.55,2.4299999999998363
2844,3748.17,1.2299999999995634
2845,3748.99,2.6100000000003547
2846,3750.73,0.5100000000002183
2847,3751.07,2.0249999999998636
2848,3752.42,1.2449999999998909
2849,3753.25,1.290000000000191
2850,3754.11,1.1849999999999454
2851,3754.9,2.339999999999918
2852,3756.46,2.924999999999727
2853,3758.41,2.7750000000005457
2854,3760.26,1.3949999999997544
2855,3761.19,1.4100000000000819
2856,3762.13,1.2749999999998636
2857,3762.98,1.3200000000001637
2858,3763.86,1.334999999999809
2859,3764.75,2.700000000000273
2860,3766.55,2.6399999999996453
2861,3768.31,1.3049999999998363
2862,3769.18,1.3350000000004911
2863,3770.07,1.3199999999994816
2864,3770.95,2.6549999999999727
2865,3772.72,0.48000000000024556
2866,3773.04,2.205000000000382
2867,3774.51,2.6849999999999454
2868,3776.3,1.2449999999998909
2869,3777.13,1.4249999999997272
2870,3778.08,1.2749999999998636
2871,3778.93,5.235000000000355
2872,3782.42,1.2299999999995634
2873,3783.24,1.9350000000006276
2874,3784.53,0.9149999999995089
2875,3785.14,1.2749999999998636
2876,3785.99,1.4250000000004093
2877,3786.94,1.3800000000001091
2878,3787.86,1.3800000000001091
2879,3788.78,2.6549999999999727
2880,3790.55,2.789999999999509
2881,3792.41,2.9400000000000546
2882,3794.37,3.089999999999918
2883,3796.43,2.4450000000001637
2884,3798.06,1.3049999999998363
2885,3798.93,2.6700000000003
2886,3800.71,0.43499999999994543
2887,3801.0,1.8150000000000546
2888,3802.21,1.3049999999998363
2889,3803.08,1.5150000000003274
2890,3804.09,3.5999999999994543
2891,3806.49,1.2150000000006003
2892,3807.3,1.0499999999997272
2893,3808.0,1.2600000000002183
2894,3808.84,2.384999999999536
2895,3810.43,1.1849999999999454
2896,3811.22,1.2150000000006003
2897,3812.03,1.125
2898,3812.78,2.384999999999536
2899,3814.37,1.1400000000003274
2900,3815.13,1.2749999999998636
2901,3815.98,1.2300000000002456
2902,3816.8,2.414999999999509
2903,3818.41,1.0950000000000273
2904,3819.14,1.2600000000002183
2905,3819.98,1.290000000000191
2906,3820.84,2.369999999999891
2907,3822.42,1.0799999999996999
2908,3823.14,2.3850000000002183
2909,3824.73,2.2799999999999727
2910,3826.25,1.2300000000002456
2911,3827.07,5.114999999999782
2912,3830.48,3.3299999999997
2913,3832.7,2.205000000000382
2914,3834.17,1.1399999999996453
2915,3834.93,2.2200000000000273
2916,3836.41,1.1549999999999727
2917,3837.18,2.2200000000000273
2918,3838.66,2.205000000000382
2919,3840.13,1.1399999999996453
2920,3840.89,2.1750000000004093
2921,3842.34,1.0950000000000273
2922,3843.07,2.2049999999997
2923,3844.54,1.0350000000000819
2924,3845.23,2.084999999999809
2925,3846.62,3.089999999999918
2926,3848.68,5.160000000000082
2927,3852.12,1.4250000000004093
2928,3853.07,1.4849999999996726
2929,3854.06,1.1100000000003547
2930,3854.8,2.714999999999918
2931,3856.61,2.8500000000001364
2932,3858.51,0.7649999999996453
2933,3859.02,2.2350000000003547
2934,3860.51,2.4749999999994543
2935,3862.16,1.1700000000003001
2936,3862.94,2.4899999999997817
2937,3864.6,2.3550000000002456
2938,3866.17,1.1849999999999454
2939,3866.96,2.4450000000001637
2940,3868.59,2.910000000000082
2941,3870.53,0.8999999999998636
2942,3871.13,1.2149999999999181
2943,3871.94,1.2600000000002183
2944,3872.78,3.629999999999427
2945,3875.2,2.3099999999999454
2946,3876.74,0.43500000000062755
2947,3877.03,1.9499999999995907
2948,3878.33,1.2749999999998636
2949,3879.18,1.080000000000382
2950,3879.9,1.290000000000191
2951,3880.76,2.3999999999998636
2952,3882.36,1.2749999999998636
2953,3883.21,1.3049999999998363
2954,3884.08,1.0050000000001091
2955,3884.75,2.415000000000191
2956,3886.36,1.2149999999999181
2957,3887.17,1.290000000000191
2958,3888.03,1.125
2959,3888.78,1.8299999999996999
2960,3890.0,1.3500000000001364
2961,3890.9,2.505000000000109
2962,3892.57,2.3549999999995634
2963,3894.14,1.2449999999998909
2964,3894.97,2.4300000000005184
2965,3896.59,2.880000000000109
2966,3898.51,0.8999999999998636
2967,3899.11,2.294999999999618
2968,3900.64,2.2950000000003
2969,3902.17,1.2449999999998909
2970,3903.0,2.4299999999998363
2971,3904.62,2.2950000000003
2972,3906.15,1.2749999999998636
2973,3907.0,2.3999999999998636
2974,3908.6,2.325000000000273
2975,3910.15,1.2449999999998909
2976,3910.98,2.3550000000002456
2977,3912.55,2.339999999999918
2978,3914.11,1.2599999999995362
2979,3914.95,2.3550000000002456
2980,3916.52,2.339999999999918
2981,3918.08,1.2000000000002728
2982,3918.88,2.549999999999727
2983,3920.58,2.955000000000382
2984,3922.55,0.8399999999999181
2985,3923.11,1.125
2986,3923.86,1.4100000000000819
2987,3924.8,1.8150000000000546
2988,3926.01,1.4249999999997272
2989,3926.96,2.415000000000191
2990,3928.57,2.3099999999999454
2991,3930.11,1.169999999999618
2992,3930.89,2.3550000000002456
2993,3932.46,1.169999999999618
2994,3933.24,2.2200000000000273
2995,3934.72,0.43500000000062755
2996,3935.01,1.8149999999993724
2997,3936.22,1.1850000000006276
2998,3937.01,2.2649999999996453
2999,3938.52,2.2200000000000273
3000,3940.0,1.1849999999999454
3001,3940.79,3.6449999999997544
3002,3943.22,3.0150000000003274
3003,3945.23,1.2600000000002183
3004,3946.07,1.1849999999999454
3005,3946.86,2.744999999999891
3006,3948.69,2.8500000000001364
3007,3950.59,0.7349999999996726
3008,3951.08,2.4899999999997817
3009,3952.74,0.46500000000060027
3010,3953.05,1.5149999999996453
3011,3954.06,1.334999999999809
3012,3954.95,2.7750000000005457
3013,3956.8,0.3899999999996453
3014,3957.06,1.5599999999999454
3015,3958.1,1.1849999999999454
3016,3958.89,2.130000000000109
3017,3960.31,1.1549999999999727
3018,3961.08,2.1900000000000546
3019,3962.54,0.959999999999809
3020,3963.18,2.1000000000001364
3021,3964.58,3.5100000000002183
3022,3966.92,2.3850000000002183
3023,3968.51,0.8249999999995907
3024,3969.06,2.0549999999998363
3025,3970.43,1.2149999999999181
3026,3971.24,2.0700000000001637
3027,3972.62,2.2350000000003547
3028,3974.11,1.1399999999996453
3029,3974.87,2.160000000000082
3030,3976.31,1.125
3031,3977.06,2.3099999999999454
3032,3978.6,2.1450000000004366
3033,3980.03,1.0950000000000273
3034,3980.76,2.219999999999345
3035,3982.24,0.9600000000004911
3036,3982.88,2.2200000000000273
3037,3984.36,1.0199999999997544
3038,3985.04,2.25
3039,3986.54,1.0350000000000819
3040,3987.23,4.290000000000191
3041,3990.09,0.9899999999997817
3042,3990.75,2.1900000000000546
3043,3992.21,1.125
3044,3992.96,1.9800000000002456
3045,3994.28,1.1399999999996453
3046,3995.04,5.279999999999973
3047,3998.56,0.9299999999998363
3048,3999.18,2.085000000000491
3049,4000.57,0.6600000000000819
3050,4001.01,1.7849999999993997
3051,4002.2,0.915000000000191
3052,4002.81,2.8200000000001637
3053,4004.69,2.744999999999891
3054,4006.52,0.8550000000002456
3055,4007.09,1.8299999999996999
3056,4008.31,1.0350000000000819
3057,4009.0,1.5450000000003001
3058,4010.03,1.3199999999994816
3059,4010.91,2.6549999999999727
3060,4012.68,0.8250000000002728
3061,4013.23,1.9349999999999454
3062,4014.52,2.9700000000000273
3063,4016.5,0.8399999999999181
3064,4017.06,2.2650000000003274
3065,4018.57,0.8999999999998636
3066,4019.17,1.6499999999998636
3067,4020.27,1.125
3068,4021.02,2.2799999999999727
3069,4022.54,0.705000000000382
3070,4023.01,2.504999999999427
3071,4024.68,0.7950000000003001
3072,4025.21,2.0100000000002183
3073,4026.55,0.6749999999997272
3074,4027.0,2.4450000000001637
3075,4028.63,2.8200000000001637
3076,4030.51,3.344999999999345
3077,4032.74,2.6850000000006276
3078,4034.53,0.7349999999996726
3079,4035.02,2.505000000000109
3080,4036.69,0.7200000000000273
3081,4037.17,2.1149999999997817
3082,4038.58,0.6600000000000819
3083,4039.02,2.2200000000000273
3084,4040.5,0.75
3085,4041.0,2.6099999999996726
3086,4042.74,2.6700000000003
3087,4044.52,0.8550000000002456
3088,4045.09,2.1900000000000546
3089,4046.55,0.7349999999996726
3090,4047.04,1.7999999999997272
3091,4048.24,0.915000000000191
3092,4048.85,2.8049999999998363
3093,4050.72,2.7300000000002456
3094,4052.54,0.8999999999998636
3095,4053.14,2.8200000000001637
3096,4055.02,2.4750000000001364
3097,4056.67,0.794999999999618
3098,4057.2,0.8400000000006003
3099,4057.76,1.6049999999995634
3100,4058.83,2.625
3101,4060.58,0.8999999999998636
3102,4061.18,1.9800000000002456
3103,4062.5,0.75
3104,4063.0,2.4750000000001364
3105,4064.65,0.8699999999998909
3106,4065.23,1.9649999999999181
3107,4066.54,0.705000000000382
3108,4067.01,2.3099999999999454
3109,4068.55,0.8699999999998909
3110,4069.13,1.6950000000001637
3111,4070.26,1.709999999999809
3112,4071.4,1.7999999999997272
3113,4072.6,0.8699999999998909
3114,4073.18,1.995000000000573
3115,4074.51,0.7649999999996453
3116,4075.02,2.4750000000001364
3117,4076.67,2.8049999999998363
3118,4078.54,0.7350000000003547
3119,4079.03,2.2049999999997
3120,4080.5,0.8099999999999454
3121,4081.04,2.3999999999998636
3122,4082.64,2.8950000000004366
3123,4084.57,0.7649999999996453
3124,4085.08,1.6950000000001637
3125,4086.21,3.540000000000191
3126,4088.57,0.8249999999995907
3127,4089.12,1.7100000000004911
3128,4090.26,1.1549999999999727
3129,4091.03,2.339999999999918
3130,4092.59,0.8849999999995362
3131,4093.18,1.7850000000000819
3132,4094.37,1.0650000000000546
3133,4095.08,2.4749999999994543
3134,4096.73,2.7150000000006003
3135,4098.54,0.7349999999996726
3136,4099.03,2.4899999999997817
3137,4100.69,2.880000000000109
3138,4102.61,3.6750000000010914
3139,4105.06,2.414999999999509
3140,4106.67,0.8099999999999454
3141,4107.21,1.9799999999995634
3142,4108.53,0.705000000000382
3143,4109.0,1.7100000000004911
3144,4110.14,0.9299999999998363
3145,4110.76,1.8900000000003274
3146,4112.02,1.2449999999998909
3147,4112.85,2.5199999999990723
3148,4114.53,3.0
3149,4116.53,0.9150000000008731
3150,4117.14,1.7849999999993997
3151,4118.33,1.2000000000002728
3152,4119.13,2.1450000000004366
3153,4120.56,2.414999999999509
3154,4122.17,0.8850000000002183
3155,4122.76,2.625
3156,4124.51,0.7349999999996726
3157,4125.0,2.5650000000000546
3158,4126.71,2.744999999999891
3159,4128.54,0.7349999999996726
3160,4129.03,2.5650000000000546
3161,4130.74,2.6849999999999454
3162,4132.53,2.3099999999999454
3163,4134.07,1.2150000000006003
3164,4134.88,1.964999999999236
3165,4136.19,1.035000000000764
3166,4136.88,3.164999999999509
3167,4138.99,1.8599999999996726
3168,4140.23,1.0050000000001091
3169,4140.9,2.610000000001037
3170,4142.64,0.6149999999997817
3171,4143.05,2.084999999999127
3172,4144.44,0.9450000000001637
3173,4145.07,1.8000000000010914
3174,4146.27,1.1099999999996726
3175,4147.01,1.7550000000001091
3176,4148.18,0.9299999999998363
3177,4148.8,2.549999999999727
3178,4150.5,0.8549999999995634
3179,4151.07,1.7100000000004911
3180,4152.21,0.9600000000004911
3181,4152.85,2.789999999999509
3182,4154.71,3.6450000000004366
3183,4157.14,1.7849999999993997
3184,4158.33,1.0050000000001091
3185,4159.0,1.8150000000000546
3186,4160.21,0.8250000000002728
3187,4160.76,2.9400000000000546
3188,4162.72,2.6849999999999454
3189,4164.51,0.9749999999994543
3190,4165.16,1.7100000000004911
3191,4166.3,1.0949999999993452
3192,4167.03,2.5650000000000546
3193,4168.74,2.6400000000003274
3194,4170.5,0.9149999999995089
3195,4171.11,1.7550000000001091
3196,4172.28,1.0950000000007094
3197,4173.01,2.2799999999992906
3198,4174.53,0.7800000000006548
3199,4175.05,1.4849999999996726
3200,4176.04,1.169999999999618
3201,4176.82,2.6700000000009823
3202,4178.6,0.9449999999987995
3203,4179.23,1.9500000000002728
3204,4180.53,0.75
3205,4181.03,1.8150000000000546
3206,4182.24,0.9000000000005457
3207,4182.84,2.789999999999509
3208,4184.7,2.8500000000008185
3209,4186.6,0.8699999999998909
3210,4187.18,1.9949999999998909
3211,4188.51,0.8250000000002728
3212,4189.06,1.875
3213,4190.31,1.0650000000000546
3214,4191.02,2.1449999999990723
3215,4192.45,0.9299999999998363
3216,4193.07,1.5599999999999454
3217,4194.11,0.9750000000008185
3218,4194.76,2.0549999999998363
3219,4196.13,0.9450000000001637
3220,4196.76,2.0999999999994543
3221,4198.16,0.9450000000001637
3222,4198.79,1.9949999999998909
3223,4200.12,1.035000000000764
3224,4200.81,2.669999999999618
3225,4202.59,2.924999999999727
3226,4204.54,0.8099999999999454
3227,4205.08,2.4450000000001637
3228,4206.71,0.5700000000001637
3229,4207.09,1.6649999999995089
3230,4208.2,0.9299999999998363
3231,4208.82,2.085000000000491
3232,4210.21,1.3499999999994543
3233,4211.11,1.875
3234,4212.36,1.035000000000764
3235,4213.05,2.2650000000003274
3236,4214.56,0.9749999999994543
3237,4215.21,2.0700000000001637
3238,4216.59,3.119999999999891
3239,4218.67,2.9099999999993997
3240,4220.61,0.9150000000008731
3241,4221.22,2.084999999999127
3242,4222.61,1.0050000000001091
3243,4223.28,1.8600000000010368
3244,4224.52,0.8999999999991815
3245,4225.12,2.205000000000382
3246,4226.59,2.924999999999727
3247,4228.54,0.6900000000000546
3248,4229.0,2.294999999999618
3249,4230.53,3.0450000000009823
3250,4232.56,1.0949999999993452
3251,4233.29,1.830000000000382
3252,4234.51,1.0799999999990177
3253,4235.23,2.1900000000000546
3254,4236.69,0.7650000000003274
3255,4237.2,1.7399999999997817
3256,4238.36,1.0050000000001091
3257,4239.03,2.4299999999998363
3258,4240.65,3.0599999999999454
3259,4242.69,3.0150000000003274
3260,4244.7,2.8649999999997817
3261,4246.61,3.0900000000006003
3262,4248.67,5.099999999999454
3263,4252.07,1.0500000000010914
3264,4252.77,2.834999999999127
3265,4254.66,3.1049999999995634
3266,4256.73,2.985000000001037
3267,4258.72,2.924999999999727
3268,4260.67,3.0299999999992906
3269,4262.69,2.7300000000009277
3270,4264.51,0.8699999999998909
3271,4265.09,2.2349999999996726
3272,4266.58,0.8850000000002183
3273,4267.17,2.0250000000005457
3274,4268.52,2.8049999999998363
3275,4270.39,0.9599999999991269
3276,4271.03,1.9500000000002728
3277,4272.33,1.035000000000764
3278,4273.02,2.0549999999998363
3279,4274.39,1.0050000000001091
3280,4275.06,1.8899999999989632
3281,4276.32,1.0650000000000546
3282,4277.03,2.205000000000382
3283,4278.5,0.794999999999618
3284,4279.03,1.6650000000008731
3285,4280.14,1.0199999999990723
3286,4280.82,1.9500000000002728
3287,4282.12,1.0499999999997272
3288,4282.82,2.8649999999997817
3289,4284.73,2.9400000000000546
3290,4286.69,0.4950000000012551
3291,4287.02,3.014999999998963
3292,4289.03,2.5950000000007094
3293,4290.76,1.9949999999998909
3294,4292.09,1.1400000000003274
3295,4292.85,1.964999999999236
3296,4294.16,0.9299999999998363
3297,4294.78,2.1149999999997817
3298,4296.19,0.9750000000008185
3299,4296.84,2.039999999999509
3300,4298.2,1.0499999999997272
3301,4298.9,2.5650000000000546
3302,4300.61,2.8950000000004366
3303,4302.54,3.1950000000001637
3304,4304.67,3.0150000000003274
3305,4306.68,5.219999999999345
3306,4310.16,1.3200000000001637
3307,4311.04,1.3200000000001637
3308,4311.92,1.3800000000001091
3309,4312.84,2.6400000000003274
3310,4314.6,0.9899999999997817
3311,4315.26,1.8900000000003274
3312,4316.52,0.9599999999991269
3313,4317.16,2.0100000000002183
3314,4318.5,0.7800000000006548
3315,4319.02,2.009999999998854
3316,4320.36,1.0500000000010914
3317,4321.06,2.459999999999127
3318,4322.7,0.49499999999989086
3319,4323.03,1.7100000000004911
3320,4324.17,1.1849999999999454
3321,4324.96,1.7999999999997272
3322,4326.16,1.2600000000002183
3323,4327.0,1.875
3324,4328.25,4.020000000000437
3325,4330.93,2.130000000000109
3326,4332.35,3.2849999999993997
3327,4334.54,2.369999999999891
3328,4336.12,1.0950000000007094
3329,4336.85,2.084999999999127
3330,4338.24,0.9899999999997817
3331,4338.9,1.8600000000010368
3332,4340.14,1.0499999999997272
3333,4340.84,2.0249999999991815
3334,4342.19,1.0950000000007094
3335,4342.92,2.085000000000491
3336,4344.31,1.0349999999993997
3337,4345.0,2.280000000000655
3338,4346.52,1.0649999999986903
3339,4347.23,2.1450000000004366
3340,4348.66,3.5250000000005457
3341,4351.01,1.9500000000002728
3342,4352.31,1.0349999999993997
3343,4353.0,2.039999999999509
3344,4354.36,1.0500000000010914
3345,4355.06,2.174999999999727
3346,4356.51,3.2699999999990723
3347,4358.69,2.205000000000382
3348,4360.16,1.1400000000003274
3349,4360.92,2.174999999999727
3350,4362.37,1.125
3351,4363.12,1.0050000000001091
3352,4363.79,1.8599999999996726
3353,4365.03,2.235000000001037
3354,4366.52,0.7199999999993452
3355,4367.0,2.2650000000003274
3356,4368.51,0.9299999999998363
3357,4369.13,2.174999999999727
3358,4370.58,2.9849999999996726
3359,4372.57,3.1050000000009277
3360,4374.64,2.084999999999127
3361,4376.03,1.125
3362,4376.78,2.1149999999997817
3363,4378.19,1.1100000000010368
3364,4378.93,2.084999999999127
3365,4380.32,1.080000000000382
3366,4381.04,2.0250000000005457
3367,4382.39,0.9899999999997817
3368,4383.05,2.174999999999727
3369,4384.5,1.0200000000004366
3370,4385.18,2.174999999999727
3371,4386.63,3.044999999999618
3372,4388.66,3.075000000000273
3373,4390.71,2.9400000000000546
3374,4392.67,3.0
3375,4394.67,2.3549999999995634
3376,4396.24,1.035000000000764
3377,4396.93,1.9799999999995634
3378,4398.25,1.125
3379,4399.0,2.0100000000002183
3380,4400.34,1.125
3381,4401.09,1.8900000000003274
3382,4402.35,1.0650000000000546
3383,4403.06,1.8449999999993452
3384,4404.29,0.9149999999995089
3385,4404.9,1.9050000000006548
3386,4406.17,0.9899999999997817
3387,4406.83,1.9050000000006548
3388,4408.1,0.9899999999997817
3389,4408.76,2.9099999999993997
3390,4410.7,2.0549999999998363
3391,4412.07,1.1100000000010368
3392,4412.81,2.504999999998745
3393,4414.48,6.06000000000131
3394,4418.52,2.8499999999994543
3395,4420.42,3.2249999999994543
3396,4422.57,3.0450000000009823
3397,4424.6,3.089999999999236
3398,4426.66,0.5850000000004911
3399,4427.05,1.4699999999993452
3400,4428.03,1.2750000000005457
3401,4428.88,1.6499999999991815
3402,4429.98,1.8600000000010368
3403,4431.22,1.9799999999995634
3404,4432.54,0.7200000000007094
3405,4433.02,1.1399999999989632
3406,4433.78,2.040000000000873
3407,4435.14,1.9499999999989086
3408,4436.44,2.1000000000008185
3409,4437.84,2.084999999999127
3410,4439.23,1.9350000000013097
3411,4440.52,0.75
3412,4441.02,1.3349999999991269
3413,4441.91,2.040000000000873
3414,4443.27,1.2899999999995089
3415,4444.13,3.9899999999997817
3416,4446.79,2.130000000000109
3417,4448.21,1.0349999999993997
3418,4448.9,2.0550000000012005
3419,4450.27,2.789999999999509
3420,4452.13,1.2449999999998909
3421,4452.96,2.0999999999994543
3422,4454.36,0.9750000000008185
3423,4455.01,2.325000000000273
3424,4456.56,0.7649999999989632
3425,4457.07,1.2600000000002183
3426,4457.91,1.2750000000005457
3427,4458.76,2.6549999999992906
3428,4460.53,3.0150000000003274
3429,4462.54,0.705000000000382
3430,4463.01,2.0100000000002183
3431,4464.35,1.0050000000001091
3432,4465.02,2.339999999999236
3433,4466.58,2.7150000000006003
3434,4468.39,1.5749999999989086
3435,4469.44,2.085000000000491
3436,4470.83,2.505000000000109
3437,4472.5,3.044999999999618
3438,4474.53,2.25
3439,4476.03,1.2000000000002728
3440,4476.83,4.905000000000655
3441,4480.1,1.1999999999989086
3442,4480.9,2.0700000000001637
3443,4482.28,2.5950000000007094
3444,4484.01,1.5
3445,4485.01,1.2449999999998909
3446,4485.84,2.0549999999998363
3447,4487.21,2.2349999999996726
3448,4488.7,0.6450000000004366
3449,4489.13,2.0549999999998363
3450,4490.5,0.8250000000002728
3451,4491.05,1.9799999999995634
3452,4492.37,2.085000000000491
3453,4493.76,2.1900000000000546
3454,4495.22,0.6149999999997817
3455,4495.63,1.875
3456,4496.88,2.085000000000491
3457,4498.27,2.6849999999999454
3458,4500.06,1.3199999999987995
3459,4500.94,2.085000000000491
3460,4502.33,3.5999999999994543
3461,4504.73,0.4350000000013097
3462,4505.02,1.4699999999993452
3463,4506.0,4.005000000000109
3464,4508.67,0.5850000000004911
3465,4509.06,2.4899999999997817
3466,4510.72,0.6749999999997272
3467,4511.17,1.6950000000001637
3468,4512.3,3.299999999999727
3469,4514.5,3.0
3470,4516.5,3.0
3471,4518.5,0.75
3472,4519.0,2.3850000000002183
3473,4520.59,0.6599999999993997
3474,4521.03,2.2650000000003274
3475,4522.54,0.7200000000007094
3476,4523.02,2.219999999999345
3477,4524.5,1.0050000000001091
3478,4525.17,2.130000000000109
3479,4526.59,0.794999999999618
3480,4527.12,2.1450000000004366
3481,4528.55,0.7799999999992906
3482,4529.07,2.160000000000764
3483,4530.51,0.9749999999994543
3484,4531.16,2.0100000000002183
3485,4532.5,0.8699999999998909
3486,4533.08,1.7550000000001091
3487,4534.25,1.1400000000003274
3488,4535.01,2.294999999999618
3489,4536.54,2.25
3490,4538.04,3.825000000000273
3491,4540.59,2.8049999999998363
3492,4542.46,0.794999999999618
3493,4542.99,2.4899999999997817
3494,4544.65,3.0150000000003274
3495,4546.66,2.8500000000008185
3496,4548.56,0.8699999999998909
3497,4549.14,2.1149999999997817
3498,4550.55,0.705000000000382
3499,4551.02,1.1399999999989632
3500,4551.78,1.5150000000003274
3501,4552.79,1.544999999999618
3502,4553.82,1.4850000000010368
3503,4554.81,1.8449999999993452
3504,4556.04,1.5150000000003274
3505,4557.05,1.4400000000000546
3506,4558.01,1.5
3507,4559.01,1.6350000000002183
3508,4560.1,1.5299999999992906
3509,4561.12,1.7100000000004911
3510,4562.26,3.4349999999999454
3511,4564.55,3.1950000000001637
3512,4566.68,0.49499999999989086
3513,4567.01,1.2600000000002183
3514,4567.85,1.5
3515,4568.85,1.7550000000001091
3516,4570.02,3.629999999998745
3517,4572.44,3.3150000000000546
3518,4574.65,0.5550000000012005
3519,4575.02,1.544999999999618
3520,4576.05,1.125
3521,4576.8,1.6499999999991815
3522,4577.9,1.875
3523,4579.15,2.0100000000002183
3524,4580.49,0.7650000000003274
3525,4581.0,2.4299999999998363
3526,4582.62,0.660000000000764
3527,4583.06,2.1599999999993997
3528,4584.5,0.794999999999618
3529,4585.03,1.7700000000004366
3530,4586.21,1.2000000000002728
3531,4587.01,1.5150000000003274
3532,4588.02,1.7999999999997272
3533,4589.22,1.8299999999990177
3534,4590.44,0.8400000000006003
3535,4591.0,1.2750000000005457
3536,4591.85,2.084999999999127
3537,4593.24,2.0700000000001637
3538,4594.62,0.705000000000382
3539,4595.09,1.0949999999993452
3540,4595.82,3.375
3541,4598.07,1.5599999999999454
3542,4599.11,1.9500000000002728
3543,4600.41,3.1500000000005457
3544,4602.51,3.1499999999991815
3545,4604.61,6.179999999999836
3546,4608.73,0.45000000000027285
3547,4609.03,2.4299999999998363
3548,4610.65,0.5850000000004911
3549,4611.04,1.9949999999998909
3550,4612.37,1.2449999999998909
3551,4613.2,1.2900000000008731
3552,4614.06,1.544999999999618
3553,4615.09,1.4099999999993997
3554,4616.03,1.125
3555,4616.78,2.9400000000000546
3556,4618.74,0.46500000000060027
3557,4619.05,1.169999999999618
3558,4619.83,1.4849999999996726
3559,4620.82,2.3400000000006003
3560,4622.38,3.164999999999509
3561,4624.49,2.910000000000764
3562,4626.43,3.044999999999618
3563,4628.46,3.0150000000003274
3564,4630.47,2.9099999999993997
3565,4632.41,3.030000000000655
3566,4634.43,2.8499999999994543
3567,4636.33,1.3649999999997817
3568,4637.24,1.410000000000764
3569,4638.18,1.1399999999989632
3570,4638.94,1.5150000000003274
3571,4639.95,1.4849999999996726
3572,4640.94,2.4450000000001637
3573,4642.57,2.910000000000764
3574,4644.51,3.119999999999891
3575,4646.59,0.8250000000002728
3576,4647.14,2.1149999999997817
3577,4648.55,2.789999999999509
3578,4650.41,2.7750000000005457
3579,4652.26,1.3349999999991269
3580,4653.15,2.040000000000873
3581,4654.51,0.9149999999995089
3582,4655.12,1.410000000000764
3583,4656.06,1.544999999999618
3584,4657.09,2.4450000000001637
3585,4658.72,0.47999999999956344
3586,4659.04,1.1849999999999454
3587,4659.83,1.5
3588,4660.83,1.6199999999998909
3589,4661.91,3.540000000000873
3590,4664.27,1.3949999999990723
3591,4665.2,2.1149999999997817
3592,4666.61,0.9450000000001637
3593,4667.24,1.6650000000008731
3594,4668.35,3.3150000000000546
3595,4670.56,2.339999999999236
3596,4672.12,0.9600000000004911
3597,4672.76,1.7099999999991269
3598,4673.9,1.7100000000004911
3599,4675.04,2.205000000000382
3600,4676.51,2.6400000000003274
3601,4678.27,1.1099999999996726
3602,4679.01,1.3949999999990723
3603,4679.94,1.7700000000004366
3604,4681.12,1.7999999999997272
3605,4682.32,3.255000000000109
3606,4684.49,3.330000000000382
3607,4686.71,0.46500000000060027
3608,4687.02,1.2899999999995089
3609,4687.88,1.6350000000002183
3610,4688.97,1.5
3611,4689.97,1.589999999999236
3612,4691.03,1.6350000000002183
3613,4692.12,1.5
3614,4693.12,1.7250000000008185
3615,4694.27,3.134999999998854
3616,4696.36,3.119999999999891
3617,4698.44,1.1849999999999454
3618,4699.23,1.9200000000009823
3619,4700.51,2.8949999999990723
3620,4702.44,3.405000000000655
3621,4704.71,0.49499999999989086
3622,4705.04,2.205000000000382
3623,4706.51,3.0150000000003274
3624,4708.52,0.794999999999618
3625,4709.05,2.205000000000382
3626,4710.52,3.0
3627,4712.52,1.169999999999618
3628,4713.3,1.8150000000000546
3629,4714.51,0.8850000000002183
3630,4715.1,2.2799999999992906
3631,4716.62,0.6300000000001091
3632,4717.04,2.2200000000007094
3633,4718.52,0.9899999999997817
3634,4719.18,1.6799999999998363
3635,4720.3,1.2000000000002728
3636,4721.1,2.1449999999990723
3637,4722.53,1.3800000000001091
3638,4723.45,1.875
3639,4724.7,0.794999999999618
3640,4725.23,2.085000000000491
3641,4726.62,0.705000000000382
3642,4727.09,2.369999999999891
3643,4728.67,0.6149999999997817
3644,4729.08,2.369999999999891
3645,4730.66,0.7200000000007094
3646,4731.14,2.1599999999993997
3647,4732.58,0.8549999999995634
3648,4733.15,2.040000000000873
3649,4734.51,0.7799999999992906
3650,4735.03,2.4000000000005457
3651,4736.63,0.5549999999998363
3652,4737.0,2.4299999999998363
3653,4738.62,0.5850000000004911
3654,4739.01,2.25
3655,4740.51,1.0199999999990723
3656,4741.19,2.0550000000012005
3657,4742.56,0.6599999999993997
3658,4743.0,1.5
3659,4744.0,1.6950000000001637
3660,4745.13,2.0549999999998363
3661,4746.5,2.9400000000000546
3662,4748.46,3.299999999999727
3663,4750.66,3.030000000000655
3664,4752.68,3.7049999999990177
3665,4755.15,1.8150000000000546
3666,4756.36,0.990000000001146
3667,4757.02,1.8149999999986903
3668,4758.23,0.9600000000004911
3669,4758.87,2.789999999999509
3670,4760.73,0.705000000000382
3671,4761.2,1.5900000000006003
3672,4762.26,3.3599999999996726
3673,4764.5,0.9899999999997817
3674,4765.16,2.325000000000273
3675,4766.71,0.6450000000004366
3676,4767.14,2.0700000000001637
3677,4768.52,0.9299999999998363
3678,4769.14,2.0549999999998363
3679,4770.51,3.0
3680,4772.51,0.8099999999999454
3681,4773.05,2.4899999999997817
3682,4774.71,2.8649999999997817
3683,4776.62,0.8699999999998909
3684,4777.2,1.9500000000002728
3685,4778.5,0.8850000000002183
3686,4779.09,2.2349999999996726
3687,4780.58,0.7800000000006548
3688,4781.1,2.0249999999991815
3689,4782.45,1.0650000000000546
3690,4783.16,2.0700000000001637
3691,4784.54,0.7349999999996726
3692,4785.03,1.7999999999997272
3693,4786.23,0.9450000000001637
3694,4786.86,1.9200000000009823
3695,4788.14,4.7849999999994
3696,4791.33,1.785000000000764
3697,4792.52,0.8249999999989086
3698,4793.07,2.9400000000000546
3699,4795.03,1.875
3700,4796.28,1.125
3701,4797.03,1.8900000000003274
3702,4798.29,1.0950000000007094
3703,4799.02,1.7849999999993997
3704,4800.21,0.9899999999997817
3705,4800.87,1.8599999999996726
3706,4802.11,0.9600000000004911
3707,4802.75,2.3400000000006003
3708,4804.31,1.0799999999990177
3709,4805.03,2.5650000000000546
3710,4806.74,3.6450000000004366
3711,4809.17,2.1599999999993997
3712,4810.61,0.9450000000001637
3713,4811.24,1.9050000000006548
3714,4812.51,0.7799999999992906
3715,4813.03,1.7250000000008185
3716,4814.18,0.8699999999998909
3717,4814.76,1.8900000000003274
3718,4816.02,1.169999999999618
3719,4816.8,2.294999999999618
3720,4818.33,1.0200000000004366
3721,4819.01,2.4749999999994543
3722,4820.66,0.8699999999998909
3723,4821.24,1.9200000000009823
3724,4822.52,0.7199999999993452
3725,4823.0,1.8449999999993452
3726,4824.23,0.8850000000002183
3727,4824.82,2.625
3728,4826.57,0.75
3729,4827.07,1.7250000000008185
3730,4828.22,0.8850000000002183
3731,4828.81,2.5650000000000546
3732,4830.52,0.9899999999997817
3733,4831.18,2.039999999999509
3734,4832.54,0.6900000000000546
3735,4833.0,2.4450000000001637
3736,4834.63,0.6900000000000546
3737,4835.09,1.7550000000001091
3738,4836.26,1.1549999999992906
3739,4837.03,2.415000000000873
3740,4838.64,0.8549999999995634
3741,4839.21,1.9949999999998909
3742,4840.54,0.7200000000007094
3743,4841.02,1.634999999998854
3744,4842.11,3.615000000001146
3745,4844.52,0.8249999999989086
3746,4845.07,2.160000000000764
3747,4846.51,0.839999999999236
3748,4847.07,1.830000000000382
3749,4848.29,3.0150000000003274
3750,4850.3,1.1400000000003274
3751,4851.06,1.0949999999993452
3752,4851.79,1.6049999999995634
3753,4852.86,2.6400000000003274
3754,4854.62,2.835000000000491
3755,4856.51,0.7349999999996726
3756,4857.0,2.580000000000382
3757,4858.72,2.7299999999995634
3758,4860.54,0.8099999999999454
3759,4861.08,1.7550000000001091
3760,4862.25,1.1849999999999454
3761,4863.04,2.414999999999509
3762,4864.65,2.115000000001146
3763,4866.06,1.1999999999989086
3764,4866.86,2.6400000000003274
3765,4868.62,0.9000000000005457
3766,4869.22,1.919999999999618
3767,4870.5,0.9149999999995089
3768,4871.11,1.8150000000000546
3769,4872.32,1.0500000000010914
3770,4873.02,2.459999999999127
3771,4874.66,2.7750000000005457
3772,4876.51,2.8200000000001637
3773,4878.39,1.0050000000001091
3774,4879.06,1.875
3775,4880.31,1.0799999999990177
3776,4881.03,1.6950000000001637
3777,4882.16,1.0200000000004366
3778,4882.84,2.700000000000273
3779,4884.64,0.8699999999998909
3780,4885.22,2.039999999999509
3781,4886.58,0.6450000000004366
3782,4887.01,2.0549999999998363
3783,4888.38,1.1400000000003274
3784,4889.14,2.084999999999127
3785,4890.53,0.9000000000005457
3786,4891.13,2.205000000000382
3787,4892.6,2.8649999999997817
3788,4894.51,0.9899999999997817
3789,4895.17,2.0999999999994543
3790,4896.57,0.8400000000006003
3791,4897.13,2.414999999999509
3792,4898.74,2.0549999999998363
3793,4900.11,0.990000000001146
3794,4900.77,3.509999999998854
3795,4903.11,1.9349999999999454
3796,4904.4,1.2449999999998909
3797,4905.23,1.9350000000013097
3798,4906.52,0.9449999999987995
3799,4907.15,2.0700000000001637
3800,4908.53,2.8500000000008185
3801,4910.43,3.464999999999236
3802,4912.74,0.42000000000098225
3803,4913.02,2.009999999998854
3804,4914.36,3.4349999999999454
3805,4916.65,0.615000000001146
3806,4917.06,2.174999999999727
3807,4918.51,0.9599999999991269
3808,4919.15,2.1000000000008185
3809,4920.55,2.8200000000001637
3810,4922.43,3.375
3811,4924.68,0.7349999999996726
3812,4925.17,1.8150000000000546
3813,4926.38,3.419999999999618
3814,4928.66,0.5250000000005457
3815,4929.01,1.919999999999618
3816,4930.29,3.3599999999996726
3817,4932.53,3.0150000000003274
3818,4934.54,2.9099999999993997
3819,4936.48,2.955000000000382
3820,4938.45,2.924999999999727
3821,4940.4,3.030000000000655
3822,4942.42,3.0150000000003274
3823,4944.43,3.0299999999992906
3824,4946.45,3.044999999999618
3825,4948.48,3.165000000000873
3826,4950.59,3.1350000000002183
3827,4952.68,2.9400000000000546
3828,4954.64,0.6749999999997272
3829,4955.09,2.2799999999992906
3830,4956.61,2.2200000000007094
3831,4958.09,1.3950000000004366
3832,4959.02,1.379999999998745
3833,4959.94,3.8400000000006003
3834,4962.5,0.8699999999998909
3835,4963.08,1.3499999999994543
3836,4963.98,3.7650000000003274
3837,4966.49,3.255000000000109
3838,4968.66,0.5549999999998363
3839,4969.03,2.415000000000873
3840,4970.64,2.8949999999990723
3841,4972.57,2.9400000000000546
3842,4974.53,3.1799999999998363
3843,4976.65,3.1950000000001637
3844,4978.78,0.3900000000003274
3845,4979.04,1.2449999999998909
3846,4979.87,1.5900000000006003
3847,4980.93,2.5799999999990177
3848,4982.65,2.0700000000001637
3849,4984.03,1.1849999999999454
3850,4984.82,2.280000000000655
3851,4986.34,1.1849999999999454
3852,4987.13,1.2899999999995089
3853,4987.99,1.3950000000004366
3854,4988.92,2.6849999999999454
3855,4990.71,0.46500000000060027
3856,4991.02,2.6549999999992906
3857,4992.79,0.330000000000382
3858,4993.01,1.5750000000002728
3859,4994.06,1.0650000000000546
3860,4994.77,1.5299999999992906
3861,4995.79,1.6500000000005457
3862,4996.89,1.6199999999998909
3863,4997.97,3.7349999999996726
3864,5000.46,3.255000000000109
3865,5002.63,0.5700000000001637
3866,5003.01,2.294999999999618
3867,5004.54,3.0599999999999454
3868,5006.58,2.744999999999891
3869,5008.41,1.2449999999998909
3870,5009.24,2.0100000000002183
3871,5010.58,0.660000000000764
3872,5011.02,2.264999999998963
3873,5012.53,0.7200000000007094
3874,5013.01,1.5150000000003274
3875,5014.02,1.1999999999989086
3876,5014.82,1.8000000000010914
3877,5016.02,1.169999999999618
3878,5016.8,1.455000000000382
3879,5017.77,1.6049999999995634
3880,5018.84,2.205000000000382
3881,5020.31,1.3949999999990723
3882,5021.24,2.205000000000382
3883,5022.71,0.6749999999997272
3884,5023.16,2.040000000000873
3885,5024.52,2.9849999999996726
3886,5026.51,0.9899999999997817
3887,5027.17,2.0250000000005457
3888,5028.52,0.7349999999996726
3889,5029.01,1.8599999999996726
3890,5030.25,1.2449999999998909
3891,5031.08,1.6049999999995634
3892,5032.15,0.9300000000012005
3893,5032.77,3.4049999999992906
3894,5035.04,1.7100000000004911
3895,5036.18,0.9149999999995089
3896,5036.79,2.7750000000005457
3897,5038.64,0.9450000000001637
3898,5039.27,1.9349999999999454
3899,5040.56,0.7049999999990177
3900,5041.03,1.8900000000003274
3901,5042.29,1.080000000000382
3902,5043.01,2.414999999999509
3903,5044.62,0.9000000000005457
3904,5045.22,1.9349999999999454
3905,5046.51,1.0050000000001091
3906,5047.18,1.9949999999998909
3907,5048.51,0.75
3908,5049.01,1.9799999999995634
3909,5050.33,3.6900000000000546
3910,5052.79,1.9949999999998909
3911,5054.12,1.0050000000001091
3912,5054.79,2.5650000000000546
3913,5056.5,0.8400000000006003
3914,5057.06,1.8150000000000546
3915,5058.27,1.125
3916,5059.02,2.5199999999990723
3917,5060.7,0.7650000000003274
3918,5061.21,1.6199999999998909
3919,5062.29,1.1550000000006548
3920,5063.06,2.1900000000000546
3921,5064.52,0.794999999999618
3922,5065.05,1.7849999999993997
3923,5066.24,0.8400000000006003
3924,5066.8,3.4049999999992906
