,BIT_DEPTH,RATE_OF_PENETRATION,HOOK_LOAD,DIFFERENTIAL_PRESSURE,WEIGHT_ON_BIT,DRILL_BIT_ID,DRILL_BIT_NAME,CPR,CPF,CPH,NEXT_DEPTH,NEXT_RATE,PREV_ID,DEPTH_INTERVAL,TIME_INTERVAL,cost
0,117.3,932.6,65.5,10.0,0.31,1,Apollo,1000,4.0,2500,119.18,951.1,,1.8800000000000097,0.02156586961183788,1061.4346740295946
1,119.18,951.1,65.6,19.0,0.03,1,Apollo,1000,4.0,2500,148.57,1235.4,1.0,29.389999999999986,0.03090106192829354,194.8126548207338
2,148.57,1235.4,60.0,91.0,4.08,1,Apollo,1000,4.0,2500,150.86,813.6,1.0,2.2900000000000205,0.0018536506394690143,13.794126598672618
3,150.86,813.6,61.0,163.0,0.76,1,Apollo,1000,4.0,2500,151.09,873.2,1.0,0.22999999999998977,0.0002826941986233896,1.626735496558433
4,151.09,873.2,60.9,55.0,2.33,1,Apollo,1000,4.0,2500,156.79,1011.4,1.0,5.699999999999989,0.006527714154832785,39.119285387081916
5,156.79,1011.4,61.0,81.0,0.87,1,Apollo,1000,4.0,2500,190.56,95.6,1.0,33.77000000000001,0.03338936128139214,218.5534032034804
6,190.56,95.6,50.6,518.0,13.7,1,Apollo,1000,4.0,2500,195.1,464.3,1.0,4.539999999999992,0.04748953974895389,136.8838493723847
7,195.1,464.3,46.2,430.0,14.64,1,Apollo,1000,4.0,2500,196.7,810.8,1.0,1.5999999999999943,0.0034460478139134057,15.01511953478349
8,196.7,810.8,55.3,441.0,13.65,1,Apollo,1000,4.0,2500,202.66,743.8,1.0,5.960000000000008,0.007350764676862368,42.21691169215595
9,202.66,743.8,43.9,447.0,14.76,1,Apollo,1000,4.0,2500,214.68,1142.7,1.0,12.02000000000001,0.01616025813390698,88.48064533476749
10,214.68,1142.7,53.4,466.0,3.56,1,Apollo,1000,4.0,2500,225.34,1157.9,1.0,10.659999999999997,0.009328782707622295,65.96195676905572
11,225.34,1157.9,55.6,272.0,9.36,1,Apollo,1000,4.0,2500,269.08,815.0,1.0,43.73999999999998,0.037775282839623434,269.3982070990585
12,269.08,815.0,38.0,516.0,31.99,1,Apollo,1000,4.0,2500,274.68,352.8,1.0,5.600000000000023,0.006871165644171807,39.57791411042961
13,274.68,352.8,53.1,378.0,13.79,1,Apollo,1000,4.0,2500,278.6,100.8,1.0,3.920000000000016,0.011111111111111157,43.457777777777956
14,278.6,100.8,43.8,395.0,19.71,1,Apollo,1000,4.0,2500,281.13,762.5,1.0,2.5299999999999727,0.025099206349206076,72.86801587301508
15,281.13,762.5,61.6,533.0,3.51,1,Apollo,1000,4.0,2500,321.02,954.7,1.0,39.889999999999986,0.05231475409836064,290.34688524590155
16,321.02,954.7,52.6,300.0,9.36,1,Apollo,1000,4.0,2500,330.2,1064.6,1.0,9.180000000000007,0.009615586047973192,60.75896511993301
17,330.2,1064.6,38.0,584.0,23.23,1,Apollo,1000,4.0,2500,331.26,732.3,1.0,1.0600000000000023,0.000995679128311105,6.729197820777772
18,331.26,732.3,38.6,630.0,20.67,1,Apollo,1000,4.0,2500,341.77,897.7,1.0,10.509999999999991,0.014352041513041092,77.9201037826027
19,341.77,897.7,66.4,368.0,2.35,1,Apollo,1000,4.0,2500,343.8,1245.0,1.0,2.0300000000000296,0.002261334521555118,13.773336303887913
20,343.8,1245.0,51.0,401.0,8.7,1,Apollo,1000,4.0,2500,346.28,1247.5,1.0,2.4799999999999613,0.001991967871485913,14.899919678714628
21,346.28,1247.5,56.1,875.0,1.18,1,Apollo,1000,4.0,2500,349.07,1168.3,1.0,2.7900000000000205,0.0022364729458918,16.75118236472958
22,349.07,1168.3,37.8,623.0,22.25,1,Apollo,1000,4.0,2500,350.58,963.0,1.0,1.509999999999991,0.0012924762475391516,9.271190618847843
23,350.58,963.0,37.8,496.0,22.42,1,Apollo,1000,4.0,2500,355.0,926.9,1.0,4.420000000000016,0.004589823468328157,29.154558670820457
24,355.0,926.9,38.3,735.0,21.8,1,Apollo,1000,4.0,2500,363.77,1353.3,1.0,8.769999999999982,0.00946164634804184,58.73411587010453
25,363.77,1353.3,63.0,1073.0,26.46,1,Apollo,1000,4.0,2500,388.51,879.2,1.0,24.74000000000001,0.018281238454149123,144.66309613537285
26,388.51,879.2,58.8,801.0,9.73,1,Apollo,1000,4.0,2500,418.1,657.3,1.0,29.590000000000032,0.03365559599636036,202.498989990901
27,418.1,657.3,63.4,1057.0,1.13,1,Apollo,1000,4.0,2500,421.14,814.9,1.0,3.0399999999999636,0.004624980982808404,23.722452457020864
28,421.14,814.9,60.5,932.0,0.99,1,Apollo,1000,4.0,2500,422.55,902.6,1.0,1.410000000000025,0.0017302736532090134,9.965684133022634
29,422.55,902.6,56.9,817.0,2.39,1,Apollo,1000,4.0,2500,423.37,880.1,1.0,0.8199999999999932,0.0009084865942831744,5.551216485707909
30,423.37,880.1,58.4,1139.0,3.27,1,Apollo,1000,4.0,2500,434.77,1085.8,1.0,11.399999999999977,0.01295307351437334,77.98268378593326
31,434.77,1085.8,51.2,1249.0,18.66,1,Apollo,1000,4.0,2500,446.73,1230.1,1.0,11.960000000000036,0.011014919874746764,75.37729968686706
32,446.73,1230.1,69.0,862.0,8.92,1,Apollo,1000,4.0,2500,447.89,1304.7,1.0,1.1599999999999682,0.0009430127631899587,6.9975319079747695
33,447.89,1304.7,69.4,460.0,0.03,1,Apollo,1000,4.0,2500,452.14,1441.2,1.0,4.25,0.003257453820801717,25.143634552004293
34,452.14,1441.2,58.9,604.0,7.21,1,Apollo,1000,4.0,2500,453.35,1418.8,1.0,1.2100000000000364,0.0008395781293366891,6.938945323341868
35,453.35,1418.8,64.8,605.0,6.11,1,Apollo,1000,4.0,2500,456.55,1567.8,1.0,3.1999999999999886,0.0022554271215111284,18.438567803777776
36,456.55,1567.8,37.2,816.0,23.78,1,Apollo,1000,4.0,2500,474.63,468.8,1.0,18.079999999999984,0.011532083173874209,101.15020793468545
37,474.63,468.8,53.9,796.0,10.14,1,Apollo,1000,4.0,2500,487.09,575.5,1.0,12.45999999999998,0.026578498293515315,116.2862457337882
38,487.09,575.5,55.3,848.0,12.82,1,Apollo,1000,4.0,2500,495.04,677.4,1.0,7.9500000000000455,0.013814074717636916,66.33518679409246
39,495.04,677.4,77.5,663.0,14.98,1,Apollo,1000,4.0,2500,498.66,1265.6,1.0,3.6200000000000045,0.005343962208444058,27.83990552111016
40,498.66,1265.6,53.5,873.0,21.86,1,Apollo,1000,4.0,2500,500.72,1298.9,1.0,2.0600000000000023,0.001627686472819218,12.309216182048054
41,500.72,1298.9,58.3,695.0,3.8,1,Apollo,1000,4.0,2500,506.29,307.6,1.0,5.569999999999993,0.004288243898683495,33.00060974670871
42,506.29,307.6,77.7,384.0,10.44,1,Apollo,1000,4.0,2500,545.19,1227.8,1.0,38.900000000000034,0.1264629388816646,471.75734720416165
43,545.19,1227.8,38.1,1189.0,28.21,1,Apollo,1000,4.0,2500,548.81,583.4,1.0,3.619999999999891,0.0029483629255578196,21.850907313894112
44,548.81,583.4,62.6,792.0,0.92,1,Apollo,1000,4.0,2500,549.17,625.9,1.0,0.36000000000001364,0.0006170723345903559,2.9826808364759447
45,549.17,625.9,59.4,953.0,4.34,1,Apollo,1000,4.0,2500,564.9,776.4,1.0,15.730000000000018,0.025131810193321648,125.74952548330418
46,564.9,776.4,57.5,777.0,7.12,1,Apollo,1000,4.0,2500,581.03,583.0,1.0,16.129999999999995,0.020775373518804735,116.45843379701182
47,581.03,583.0,56.8,924.0,15.08,1,Apollo,1000,4.0,2500,583.21,679.2,1.0,2.1800000000000637,0.0037392795883363014,18.06819897084101
48,583.21,679.2,55.3,922.0,7.71,1,Apollo,1000,4.0,2500,593.3,648.3,1.0,10.089999999999918,0.014855712603062307,77.49928150765544
49,593.3,648.3,58.9,871.0,3.96,1,Apollo,1000,4.0,2500,602.53,658.1,1.0,9.230000000000018,0.014237235847601446,72.5130896190037
50,602.53,658.1,57.9,967.0,2.67,1,Apollo,1000,4.0,2500,603.28,674.2,1.0,0.75,0.0011396444309375474,5.849111077343869
51,603.28,674.2,55.4,1200.0,9.07,1,Apollo,1000,4.0,2500,606.81,679.6,1.0,3.5299999999999727,0.005235835063779254,27.209587659448026
52,606.81,679.6,49.0,1224.0,2.85,1,Apollo,1000,4.0,2500,609.05,695.9,1.0,2.240000000000009,0.003296056503825793,17.200141259564518
53,609.05,695.9,62.1,793.0,0.98,1,Apollo,1000,4.0,2500,611.01,555.7,1.0,1.9600000000000364,0.002816496623078081,14.881241557695347
54,611.01,555.7,58.9,803.0,1.6,1,Apollo,1000,4.0,2500,613.05,675.4,1.0,2.0399999999999636,0.003671045528162612,17.337613820406386
55,613.05,675.4,60.0,800.0,0.52,1,Apollo,1000,4.0,2500,618.0,1091.7,1.0,4.9500000000000455,0.007328990228013098,38.122475570032925
56,618.0,1091.7,40.3,1043.0,21.67,1,Apollo,1000,4.0,2500,620.17,1170.8,1.0,2.169999999999959,0.001987725565631546,13.6493139140787
57,620.17,1170.8,74.9,483.0,22.24,1,Apollo,1000,4.0,2500,621.25,1180.9,1.0,1.080000000000041,0.0009224461906389143,6.62611547659745
58,621.25,1180.9,77.6,479.0,23.98,1,Apollo,1000,4.0,2500,622.55,1158.6,1.0,1.2999999999999545,0.0011008552798712462,7.9521381996779335
59,622.55,1158.6,80.0,443.0,16.26,1,Apollo,1000,4.0,2500,624.31,1250.7,1.0,1.759999999999991,0.0015190747453823503,10.83768686345584
60,624.31,1250.7,81.5,587.0,14.59,1,Apollo,1000,4.0,2500,626.33,1225.4,1.0,2.0200000000000955,0.0016150955464940397,12.11773886623548
61,626.33,1225.4,78.2,409.0,20.61,1,Apollo,1000,4.0,2500,627.18,824.6,1.0,0.849999999999909,0.0006936510527174057,5.134127631793151
62,627.18,824.6,58.2,1067.0,55.16,1,Apollo,1000,4.0,2500,628.54,587.1,1.0,1.3600000000000136,0.0016492845015765385,9.5632112539414
63,628.54,587.1,70.2,1124.0,40.95,1,Apollo,1000,4.0,2500,629.13,690.8,1.0,0.5900000000000318,0.0010049395332993216,4.872348833248431
64,629.13,690.8,69.7,1053.0,47.79,1,Apollo,1000,4.0,2500,630.63,615.9,1.0,1.5,0.0021713954834973945,11.428488708743487
65,630.63,615.9,68.4,969.0,30.11,1,Apollo,1000,4.0,2500,631.19,610.6,1.0,0.5600000000000591,0.0009092385127456716,4.513096281864415
66,631.19,610.6,65.3,1103.0,43.72,1,Apollo,1000,4.0,2500,632.66,667.2,1.0,1.4699999999999136,0.002407468064199007,11.898670160497172
67,632.66,667.2,75.2,855.0,25.9,1,Apollo,1000,4.0,2500,633.48,694.2,1.0,0.82000000000005,0.0012290167865708183,6.352541966427246
68,633.48,694.2,73.4,622.0,25.36,1,Apollo,1000,4.0,2500,634.6,630.8,1.0,1.1200000000000045,0.0016133679055027434,8.513419763756877
69,634.6,630.8,69.8,639.0,26.28,1,Apollo,1000,4.0,2500,635.15,656.9,1.0,0.5499999999999545,0.0008719086873810313,4.379771718452396
70,635.15,656.9,58.7,674.0,42.44,1,Apollo,1000,4.0,2500,636.73,771.8,1.0,1.580000000000041,0.0024052367179175534,12.333091794794047
71,636.73,771.8,64.7,805.0,30.16,1,Apollo,1000,4.0,2500,637.24,668.0,1.0,0.5099999999999909,0.0006607929515418385,3.6919823788545596
72,637.24,668.0,61.1,1077.0,33.72,1,Apollo,1000,4.0,2500,638.65,588.6,1.0,1.4099999999999682,0.0021107784431137248,10.916946107784185
73,638.65,588.6,61.1,789.0,43.9,1,Apollo,1000,4.0,2500,639.01,611.1,1.0,0.36000000000001364,0.0006116207951070568,2.9690519877676964
74,639.01,611.1,63.6,1091.0,35.42,1,Apollo,1000,4.0,2500,640.57,687.4,1.0,1.5600000000000591,0.002552773686794402,12.621934216986242
75,640.57,687.4,54.8,1112.0,41.71,1,Apollo,1000,4.0,2500,641.23,642.3,1.0,0.6599999999999682,0.0009601396566772885,5.040349141693094
76,641.23,642.3,63.4,1189.0,26.59,1,Apollo,1000,4.0,2500,642.58,690.7,1.0,1.3500000000000227,0.002101821578701577,10.654553946754033
77,642.58,690.7,50.9,870.0,34.97,1,Apollo,1000,4.0,2500,644.84,1044.1,1.0,2.259999999999991,0.0032720428550745482,17.220107137686334
78,644.84,1044.1,67.7,641.0,21.07,1,Apollo,1000,4.0,2500,646.84,1344.7,1.0,2.0,0.0019155253328225267,12.788813332056318
79,646.84,1344.7,89.5,297.0,2.42,1,Apollo,1000,4.0,2500,647.14,1274.4,1.0,0.2999999999999545,0.0002230980887930055,1.757745221982332
80,647.14,1274.4,89.4,449.0,3.66,1,Apollo,1000,4.0,2500,648.31,1423.5,1.0,1.169999999999959,0.0009180790960451654,6.975197740112749
81,648.31,1423.5,77.6,326.0,17.85,1,Apollo,1000,4.0,2500,649.14,1093.8,1.0,0.8300000000000409,0.00058306989813842,4.777674745346214
82,649.14,1093.8,58.7,753.0,41.63,1,Apollo,1000,4.0,2500,650.97,1123.7,1.0,1.830000000000041,0.0016730663741086494,11.502665935271787
83,650.97,1123.7,72.2,533.0,17.16,1,Apollo,1000,4.0,2500,652.76,809.4,1.0,1.7899999999999636,0.001592951855477408,11.142379638693374
84,652.76,809.4,59.2,886.0,18.6,1,Apollo,1000,4.0,2500,653.2,867.6,1.0,0.44000000000005457,0.000543612552508098,3.1190313812704633
85,653.2,867.6,61.2,965.0,35.78,1,Apollo,1000,4.0,2500,654.76,893.4,1.0,1.5599999999999454,0.0017980636237897019,10.735159059474036
86,654.76,893.4,66.9,844.0,48.27,1,Apollo,1000,4.0,2500,655.53,917.3,1.0,0.7699999999999818,0.0008618759794045017,5.234689948511182
87,655.53,917.3,57.6,801.0,36.16,1,Apollo,1000,4.0,2500,657.4,1050.8,1.0,1.8700000000000045,0.002038591518587163,12.576478796467924
88,657.4,1050.8,86.8,377.0,7.02,1,Apollo,1000,4.0,2500,658.0,986.7,1.0,0.6000000000000227,0.0005709935287400293,3.827483821850164
89,658.0,986.7,88.1,444.0,4.48,1,Apollo,1000,4.0,2500,658.78,955.9,1.0,0.7799999999999727,0.0007905138339920672,5.096284584980059
90,658.78,955.9,84.2,373.0,8.79,1,Apollo,1000,4.0,2500,660.79,657.5,1.0,2.009999999999991,0.002102730411130862,13.29682602782712
91,660.79,657.5,55.2,865.0,43.73,1,Apollo,1000,4.0,2500,661.45,664.3,1.0,0.6600000000000819,0.0010038022813689458,5.149505703422692
92,661.45,664.3,81.3,451.0,43.89,1,Apollo,1000,4.0,2500,663.31,667.7,1.0,1.8599999999999,0.0027999397862410054,14.439849465602112
93,663.31,667.7,57.0,763.0,48.1,1,Apollo,1000,4.0,2500,664.88,751.9,1.0,1.57000000000005,0.0023513553991314213,12.158388497828753
94,664.88,751.9,61.9,858.0,39.93,1,Apollo,1000,4.0,2500,665.11,810.6,1.0,0.2300000000000182,0.00030589174092301926,1.6847293523076208
95,665.11,810.6,61.9,675.0,32.47,1,Apollo,1000,4.0,2500,666.6,767.4,1.0,1.490000000000009,0.0018381445842585852,10.555361460646498
96,666.6,767.4,54.6,942.0,44.42,1,Apollo,1000,4.0,2500,667.26,811.6,1.0,0.6599999999999682,0.0008600469116496849,4.790117279124085
97,667.26,811.6,48.9,1036.0,39.85,1,Apollo,1000,4.0,2500,668.56,938.8,1.0,1.2999999999999545,0.0016017742730408506,9.204435682601945
98,668.56,938.8,64.2,679.0,33.15,1,Apollo,1000,4.0,2500,669.11,1023.3,1.0,0.5500000000000682,0.0005858542820622798,3.6646357051559724
99,669.11,1023.3,69.9,689.0,27.91,1,Apollo,1000,4.0,2500,671.18,889.8,1.0,2.0699999999999363,0.00202286719437109,13.337167985927472
100,671.18,889.8,68.4,916.0,42.74,1,Apollo,1000,4.0,2500,673.19,865.4,1.0,2.0100000000001046,0.0022589345920432735,13.687336480108602
101,673.19,865.4,52.3,744.0,40.24,1,Apollo,1000,4.0,2500,674.26,988.3,1.0,1.0699999999999363,0.0012364224636005736,7.37105615900118
102,674.26,988.3,77.9,447.0,15.2,1,Apollo,1000,4.0,2500,675.06,986.8,1.0,0.7999999999999545,0.0008094708084589239,5.223677021147128
103,675.06,986.8,82.2,385.0,12.58,1,Apollo,1000,4.0,2500,676.86,904.4,1.0,1.8000000000000682,0.0018240778273207016,11.760194568302026
104,676.86,904.4,54.2,743.0,32.92,1,Apollo,1000,4.0,2500,677.1,888.1,1.0,0.2400000000000091,0.00026536930561699373,1.6234232640425206
105,677.1,888.1,52.7,775.0,38.77,1,Apollo,1000,4.0,2500,678.73,871.2,1.0,1.6299999999999955,0.0018353788987726558,11.108447246931622
106,678.73,871.2,72.1,612.0,30.99,1,Apollo,1000,4.0,2500,680.68,1093.5,1.0,1.9499999999999318,0.0022382920110192053,13.39573002754774
107,680.68,1093.5,78.1,718.0,20.86,1,Apollo,1000,4.0,2500,681.24,1001.2,1.0,0.5600000000000591,0.0005121170553269859,3.5202926383177013
108,681.24,1001.2,80.7,375.0,10.64,1,Apollo,1000,4.0,2500,682.9,983.3,1.0,1.6599999999999682,0.0016580103875349264,10.78502596883719
109,682.9,983.3,70.2,633.0,25.7,1,Apollo,1000,4.0,2500,683.14,986.1,1.0,0.2400000000000091,0.00024407607037527624,1.5701901759382269
110,683.14,986.1,70.2,547.0,19.2,1,Apollo,1000,4.0,2500,684.58,1101.3,1.0,1.4400000000000546,0.0014602981442044971,9.410745360511461
111,684.58,1101.3,59.5,723.0,31.05,1,Apollo,1000,4.0,2500,687.22,1079.1,1.0,2.6399999999999864,0.0023971669844728835,16.552917461182155
112,687.22,1079.1,73.4,506.0,20.1,1,Apollo,1000,4.0,2500,688.78,957.0,1.0,1.5599999999999454,0.00144564915207112,9.85412288017758
113,688.78,957.0,51.6,1163.0,51.7,1,Apollo,1000,4.0,2500,689.05,827.7,1.0,0.2699999999999818,0.00028213166144198725,1.7853291536048954
114,689.05,827.7,51.6,1136.0,35.57,1,Apollo,1000,4.0,2500,690.58,909.1,1.0,1.5300000000000864,0.0018484958318232287,10.741239579558417
115,690.58,909.1,66.2,665.0,20.17,1,Apollo,1000,4.0,2500,692.91,619.8,1.0,2.3299999999999272,0.002562974370256217,15.727435925640252
116,692.91,619.8,48.4,1154.0,39.39,1,Apollo,1000,4.0,2500,693.08,675.3,1.0,0.17000000000007276,0.0002742820264602658,1.3657050661509555
117,693.08,675.3,45.5,1106.0,42.39,1,Apollo,1000,4.0,2500,695.09,577.6,1.0,2.009999999999991,0.002976454908929352,15.481137272323343
118,695.09,577.6,51.0,1033.0,36.95,1,Apollo,1000,4.0,2500,699.04,391.7,1.0,3.949999999999932,0.006838642659279659,32.896606648198876
119,699.04,391.7,53.8,1049.0,39.15,1,Apollo,1000,4.0,2500,701.31,588.6,1.0,2.269999999999982,0.005795251467960128,23.568128669900247
120,701.31,588.6,57.3,1012.0,31.57,1,Apollo,1000,4.0,2500,703.1,595.2,1.0,1.7900000000000773,0.0030411145090045483,14.76278627251168
121,703.1,595.2,66.9,778.0,22.29,1,Apollo,1000,4.0,2500,704.07,685.2,1.0,0.9700000000000273,0.0016297043010753145,7.954260752688396
122,704.07,685.2,80.7,1125.0,45.27,1,Apollo,1000,4.0,2500,705.11,777.9,1.0,1.0399999999999636,0.0015178050204319375,7.954512551079699
123,705.11,777.9,69.7,701.0,13.62,1,Apollo,1000,4.0,2500,706.62,1144.7,1.0,1.509999999999991,0.0019411235377297738,10.8928088443244
124,706.62,1144.7,77.2,461.0,14.39,1,Apollo,1000,4.0,2500,708.63,37.9,1.0,2.009999999999991,0.0017559185812876658,12.429796453219128
125,708.63,37.9,85.6,403.0,5.49,1,Apollo,1000,4.0,2500,709.39,139.0,1.0,0.7599999999999909,0.020052770448548574,53.1719261213714
126,709.39,139.0,82.9,598.0,11.03,1,Apollo,1000,4.0,2500,710.77,560.6,1.0,1.3799999999999955,0.009928057553956803,30.34014388489199
127,710.77,560.6,61.9,801.0,27.03,1,Apollo,1000,4.0,2500,711.23,542.8,1.0,0.4600000000000364,0.0008205494113450525,3.891373528362777
128,711.23,542.8,63.2,968.0,28.79,1,Apollo,1000,4.0,2500,712.51,572.3,1.0,1.2799999999999727,0.002358142962417047,11.015357406042508
129,712.51,572.3,58.2,1084.0,28.59,1,Apollo,1000,4.0,2500,713.29,615.5,1.0,0.7799999999999727,0.0013629215446443698,6.527303861610815
130,713.29,615.5,68.5,589.0,29.42,1,Apollo,1000,4.0,2500,715.14,1114.5,1.0,1.8500000000000227,0.0030056864337937006,14.914216084484343
131,715.14,1114.5,79.8,361.0,14.94,1,Apollo,1000,4.0,2500,716.66,671.1,1.0,1.5199999999999818,0.0013638402871242546,9.489600717810564
132,716.66,671.1,80.3,602.0,15.7,1,Apollo,1000,4.0,2500,717.07,702.0,1.0,0.41000000000008185,0.0006109372671734195,3.1673431679338764
133,717.07,702.0,81.3,364.0,11.65,1,Apollo,1000,4.0,2500,718.54,756.6,1.0,1.4699999999999136,0.002094017094016971,11.115042735042081
134,718.54,756.6,72.8,745.0,21.77,1,Apollo,1000,4.0,2500,719.17,709.6,1.0,0.6299999999999955,0.0008326724821570122,4.601681205392513
135,719.17,709.6,73.0,492.0,23.72,1,Apollo,1000,4.0,2500,720.8,719.1,1.0,1.6299999999999955,0.002297068771138663,12.26267192784664
136,720.8,719.1,74.9,515.0,19.76,1,Apollo,1000,4.0,2500,721.05,748.5,1.0,0.25,0.0003476567932137394,1.8691419830343485
137,721.05,748.5,74.1,698.0,21.01,1,Apollo,1000,4.0,2500,722.74,748.5,1.0,1.6900000000000546,0.0022578490313961983,12.404622578490713
138,722.74,748.5,79.8,373.0,14.63,1,Apollo,1000,4.0,2500,723.14,755.4,1.0,0.39999999999997726,0.0005344021376085201,2.9360053440212095
139,723.14,755.4,78.9,404.0,14.67,1,Apollo,1000,4.0,2500,724.59,726.8,1.0,1.4500000000000455,0.001919512840879065,10.598782102197845
140,724.59,726.8,73.6,530.0,20.74,1,Apollo,1000,4.0,2500,725.43,699.7,1.0,0.8399999999999181,0.0011557512383047856,6.249378095761637
141,725.43,699.7,83.1,367.0,17.74,1,Apollo,1000,4.0,2500,726.67,719.0,1.0,1.240000000000009,0.001772188080605987,9.390470201515004
142,726.67,719.0,82.9,343.0,10.56,1,Apollo,1000,4.0,2500,727.08,707.6,1.0,0.41000000000008185,0.0005702364394994184,3.0655910987488735
143,727.08,707.6,78.2,404.0,15.96,1,Apollo,1000,4.0,2500,728.5,763.9,1.0,1.419999999999959,0.002006783493499094,10.696958733747572
144,728.5,763.9,60.2,912.0,36.41,1,Apollo,1000,4.0,2500,729.35,707.5,1.0,0.8500000000000227,0.001112711087838752,6.181777719596971
145,729.35,707.5,69.4,639.0,27.47,1,Apollo,1000,4.0,2500,730.76,729.6,1.0,1.4099999999999682,0.0019929328621907678,10.622332155476792
146,730.76,729.6,71.6,531.0,30.53,1,Apollo,1000,4.0,2500,731.19,745.0,1.0,0.43000000000006366,0.0005893640350878066,3.193410087719771
147,731.19,745.0,77.2,561.0,22.94,1,Apollo,1000,4.0,2500,732.69,739.1,1.0,1.5,0.002013422818791946,11.033557046979865
148,732.69,739.1,82.3,502.0,16.44,1,Apollo,1000,4.0,2500,733.1,751.4,1.0,0.40999999999996817,0.0005547287241238914,3.026821810309601
149,733.1,751.4,86.4,456.0,13.06,1,Apollo,1000,4.0,2500,734.76,751.9,1.0,1.6599999999999682,0.0022092094756454195,12.163023689113421
150,734.76,751.9,74.6,539.0,19.44,1,Apollo,1000,4.0,2500,735.19,825.7,1.0,0.43000000000006366,0.0005718845591169885,3.149711397792726
151,735.19,825.7,75.1,498.0,20.17,1,Apollo,1000,4.0,2500,736.67,721.5,1.0,1.4799999999999045,0.0017924185539541049,10.40104638488488
152,736.67,721.5,73.6,642.0,24.6,1,Apollo,1000,4.0,2500,737.12,751.0,1.0,0.4500000000000455,0.0006237006237006867,3.3592515592518986
153,737.12,751.0,68.8,577.0,25.42,1,Apollo,1000,4.0,2500,738.03,798.5,1.0,0.9099999999999682,0.0012117177097203304,6.669294274300698
154,738.03,798.5,64.2,827.0,31.69,1,Apollo,1000,4.0,2500,739.02,873.3,1.0,0.9900000000000091,0.0012398246712586212,7.05956167814659
155,739.02,873.3,73.2,417.0,21.44,1,Apollo,1000,4.0,2500,740.64,961.7,1.0,1.6200000000000045,0.0018550326348333959,11.117581587083507
156,740.64,961.7,81.2,314.0,11.87,1,Apollo,1000,4.0,2500,741.17,946.8,1.0,0.5299999999999727,0.0005511074139544273,3.4977685348859593
157,741.17,946.8,66.5,500.0,28.37,1,Apollo,1000,4.0,2500,742.25,971.7,1.0,1.080000000000041,0.001140684410646431,7.171711026616242
158,742.25,971.7,63.2,667.0,31.66,1,Apollo,1000,4.0,2500,744.85,988.3,1.0,2.6000000000000227,0.0026757229597612663,17.089307399403257
159,744.85,988.3,79.1,355.0,13.14,1,Apollo,1000,4.0,2500,745.13,925.0,1.0,0.2799999999999727,0.0002833147829606119,1.8282869574014207
160,745.13,925.0,78.9,480.0,14.39,1,Apollo,1000,4.0,2500,746.96,942.9,1.0,1.830000000000041,0.0019783783783784226,12.265945945946221
161,746.96,942.9,76.5,501.0,19.96,1,Apollo,1000,4.0,2500,747.22,979.7,1.0,0.2599999999999909,0.0002757450418920256,1.7293626047300275
162,747.22,979.7,76.5,353.0,16.59,1,Apollo,1000,4.0,2500,748.78,892.4,1.0,1.5599999999999454,0.0015923241808716397,10.220810452178881
163,748.78,892.4,74.7,400.0,21.04,1,Apollo,1000,4.0,2500,749.05,877.7,1.0,0.2699999999999818,0.00030255490811293345,1.8363872702822608
164,749.05,877.7,74.7,562.0,18.39,1,Apollo,1000,4.0,2500,750.66,948.1,1.0,1.6100000000000136,0.001834339751623577,11.025849379058997
165,750.66,948.1,67.1,617.0,23.22,1,Apollo,1000,4.0,2500,751.21,917.5,1.0,0.5500000000000682,0.000580107583588301,3.6502689589710253
166,751.21,917.5,69.3,437.0,23.69,1,Apollo,1000,4.0,2500,752.03,986.2,1.0,0.8199999999999363,0.0008937329700271785,5.514332425067692
167,752.03,986.2,73.7,403.0,19.56,1,Apollo,1000,4.0,2500,752.75,898.3,1.0,0.7200000000000273,0.0007300750354897863,4.705187588724575
168,752.75,898.3,72.7,553.0,21.49,1,Apollo,1000,4.0,2500,754.58,935.4,1.0,1.830000000000041,0.002037181342535947,12.412953356340031
169,754.58,935.4,68.6,470.0,23.54,1,Apollo,1000,4.0,2500,755.13,938.3,1.0,0.5499999999999545,0.0005879837502672168,3.66995937566786
170,755.13,938.3,74.5,451.0,23.16,1,Apollo,1000,4.0,2500,756.73,910.4,1.0,1.6000000000000227,0.0017052115528082947,10.663028882020829
171,756.73,910.4,70.3,558.0,23.21,1,Apollo,1000,4.0,2500,757.47,924.8,1.0,0.7400000000000091,0.000812829525483314,4.992073813708322
172,757.47,924.8,77.8,377.0,14.61,1,Apollo,1000,4.0,2500,758.57,948.0,1.0,1.1000000000000227,0.0011894463667820314,7.37361591695517
173,758.57,948.0,75.7,602.0,14.73,1,Apollo,1000,4.0,2500,759.1,885.3,1.0,0.5299999999999727,0.0005590717299577771,3.517679324894334
174,759.1,885.3,74.7,400.0,16.72,1,Apollo,1000,4.0,2500,760.66,936.8,1.0,1.5599999999999454,0.0017621145374448724,10.645286343611962
175,760.66,936.8,75.0,542.0,17.01,1,Apollo,1000,4.0,2500,762.52,974.9,1.0,1.8600000000000136,0.0019854824935952326,12.403706233988135
176,762.52,974.9,77.6,401.0,14.56,1,Apollo,1000,4.0,2500,763.04,935.4,1.0,0.5199999999999818,0.0005333880397989351,3.413470099497265
177,763.04,935.4,72.1,609.0,21.08,1,Apollo,1000,4.0,2500,764.63,923.3,1.0,1.5900000000000318,0.0016998075689544923,10.609518922386357
178,764.63,923.3,70.5,834.0,20.54,1,Apollo,1000,4.0,2500,765.45,949.7,1.0,0.82000000000005,0.0008881187046464313,5.500296761616278
179,765.45,949.7,72.3,561.0,16.52,1,Apollo,1000,4.0,2500,766.71,935.0,1.0,1.259999999999991,0.0013267347583447307,8.35683689586179
180,766.71,935.0,74.7,799.0,13.55,1,Apollo,1000,4.0,2500,768.59,885.3,1.0,1.8799999999999955,0.0020106951871657706,12.546737967914408
181,768.59,885.3,71.6,726.0,19.42,1,Apollo,1000,4.0,2500,770.89,742.3,1.0,2.2999999999999545,0.0025979893821303003,15.694973455325568
182,770.89,742.3,84.9,596.0,6.57,1,Apollo,1000,4.0,2500,772.27,779.6,1.0,1.3799999999999955,0.0018590866226592961,10.167716556648223
183,772.27,779.6,73.8,1042.0,29.6,1,Apollo,1000,4.0,2500,773.18,1032.5,1.0,0.9099999999999682,0.00116726526423803,6.5581631605949475
184,773.18,1032.5,72.1,745.0,15.56,1,Apollo,1000,4.0,2500,775.24,671.3,1.0,2.060000000000059,0.001995157384987951,13.227893462470114
185,775.24,671.3,63.2,872.0,42.16,1,Apollo,1000,4.0,2500,775.51,741.8,1.0,0.2699999999999818,0.0004022046774914075,2.0855116937284457
186,775.51,741.8,63.6,1145.0,30.33,1,Apollo,1000,4.0,2500,779.19,642.9,1.0,3.6800000000000637,0.00496090590455657,27.12226476139168
187,779.19,642.9,50.3,1209.0,41.82,1,Apollo,1000,4.0,2500,780.69,703.4,1.0,1.5,0.002333177788147457,11.832944470368643
188,780.69,703.4,49.5,1086.0,38.39,1,Apollo,1000,4.0,2500,782.66,663.2,1.0,1.9699999999999136,0.0028006823997724106,14.88170599943068
189,782.66,663.2,54.3,1107.0,31.79,1,Apollo,1000,4.0,2500,785.25,653.9,1.0,2.590000000000032,0.0039053075995175383,20.123268998793975
190,785.25,653.9,53.7,1176.0,34.26,1,Apollo,1000,4.0,2500,786.9,757.1,1.0,1.6499999999999773,0.0025233216088086517,12.90830402202154
191,786.9,757.1,61.0,808.0,29.92,1,Apollo,1000,4.0,2500,787.16,813.9,1.0,0.2599999999999909,0.0003434156650376316,1.8985391625940427
192,787.16,813.9,66.1,974.0,30.53,1,Apollo,1000,4.0,2500,791.47,899.4,1.0,4.310000000000059,0.005295490846541417,30.47872711635378
193,791.47,899.4,56.1,913.0,35.96,1,Apollo,1000,4.0,2500,792.63,836.7,1.0,1.1599999999999682,0.0012897487213697667,7.864371803424289
194,792.63,836.7,47.6,808.0,37.14,1,Apollo,1000,4.0,2500,794.57,934.5,1.0,1.9400000000000546,0.00231863272379593,13.556581809490044
195,794.57,934.5,58.6,653.0,43.7,1,Apollo,1000,4.0,2500,797.26,691.2,1.0,2.689999999999941,0.002878544676297422,17.956361690743318
196,797.26,691.2,58.0,873.0,34.53,1,Apollo,1000,4.0,2500,798.18,797.5,1.0,0.9199999999999591,0.0013310185185184593,7.007546296295985
197,798.18,797.5,70.1,689.0,20.91,1,Apollo,1000,4.0,2500,799.01,948.8,1.0,0.8300000000000409,0.0010407523510972299,5.921880877743238
198,799.01,948.8,72.7,695.0,20.52,1,Apollo,1000,4.0,2500,800.82,887.2,1.0,1.8100000000000591,0.0019076728499157454,12.0091821247896
199,800.82,887.2,58.2,690.0,39.24,1,Apollo,1000,4.0,2500,801.12,971.0,1.0,0.2999999999999545,0.00033814247069426795,2.045356176735488
200,801.12,971.0,67.3,630.0,23.15,1,Apollo,1000,4.0,2500,802.98,1000.2,1.0,1.8600000000000136,0.0019155509783728255,12.228877445932119
201,802.98,1000.2,67.6,616.0,21.79,1,Apollo,1000,4.0,2500,803.23,1040.3,1.0,0.25,0.0002499500099980004,1.624875024995001
202,803.23,1040.3,67.6,583.0,23.85,1,Apollo,1000,4.0,2500,807.56,887.4,1.0,4.329999999999927,0.004162260886282733,27.72565221570654
203,807.56,887.4,79.4,327.0,23.22,1,Apollo,1000,4.0,2500,808.56,977.6,1.0,1.0,0.001126887536623845,6.817218841559613
204,808.56,977.6,80.6,376.0,8.29,1,Apollo,1000,4.0,2500,810.16,1006.6,1.0,1.6000000000000227,0.0016366612111293193,10.49165302782339
205,810.16,1006.6,67.3,835.0,25.06,1,Apollo,1000,4.0,2500,812.8,825.9,1.0,2.6399999999999864,0.002622690244387032,17.116725610967524
206,812.8,825.9,86.5,431.0,14.93,1,Apollo,1000,4.0,2500,813.06,844.5,1.0,0.2599999999999909,0.00031480808814625367,1.8270202203655979
207,813.06,844.5,87.0,369.0,8.44,1,Apollo,1000,4.0,2500,814.52,850.5,1.0,1.4600000000000364,0.001728833629366532,10.162084073416477
208,814.52,850.5,80.1,397.0,13.55,1,Apollo,1000,4.0,2500,815.05,891.7,1.0,0.5299999999999727,0.0006231628453850355,3.6779071134624797
209,815.05,891.7,81.6,423.0,16.37,1,Apollo,1000,4.0,2500,816.61,883.8,1.0,1.5600000000000591,0.0017494673096333509,10.613668274083613
210,816.61,883.8,83.2,384.0,10.62,1,Apollo,1000,4.0,2500,818.55,999.6,1.0,1.9399999999999409,0.002195066757184817,13.247666892961806
211,818.55,999.6,71.8,665.0,23.29,1,Apollo,1000,4.0,2500,819.06,896.3,1.0,0.5099999999999909,0.000510204081632644,3.3155102040815736
212,819.06,896.3,69.8,765.0,26.41,1,Apollo,1000,4.0,2500,820.57,921.6,1.0,1.5100000000001046,0.0016847037822158928,10.25175945554015
213,820.57,921.6,65.9,650.0,33.59,1,Apollo,1000,4.0,2500,821.35,936.7,1.0,0.7799999999999727,0.0008463541666666371,5.235885416666484
214,821.35,936.7,64.0,832.0,38.26,1,Apollo,1000,4.0,2500,822.51,826.9,1.0,1.1599999999999682,0.001238390092879223,7.73597523219793
215,822.51,826.9,64.6,1197.0,33.37,1,Apollo,1000,4.0,2500,823.12,784.8,1.0,0.6100000000000136,0.0007376950054420289,4.2842375136051265
216,823.12,784.8,66.2,1162.0,32.13,1,Apollo,1000,4.0,2500,824.7,987.3,1.0,1.580000000000041,0.002013251783894038,11.353129459735259
217,824.7,987.3,71.6,704.0,27.75,1,Apollo,1000,4.0,2500,825.32,670.9,1.0,0.6200000000000045,0.0006279752861339052,4.049938215334781
218,825.32,670.9,61.7,958.0,34.08,1,Apollo,1000,4.0,2500,826.7,603.2,1.0,1.3799999999999955,0.0020569384409002767,10.662346102250673
219,826.7,603.2,60.0,1179.0,38.6,1,Apollo,1000,4.0,2500,827.11,657.5,1.0,0.40999999999996817,0.0006797082228116182,3.339270557028918
220,827.11,657.5,75.4,1179.0,21.94,1,Apollo,1000,4.0,2500,828.64,943.5,1.0,1.5299999999999727,0.0023269961977185898,11.937490494296366
221,828.64,943.5,87.1,622.0,8.9,1,Apollo,1000,4.0,2500,829.38,938.4,1.0,0.7400000000000091,0.0007843137254902057,4.920784313725551
222,829.38,938.4,83.8,524.0,14.89,1,Apollo,1000,4.0,2500,830.74,974.7,1.0,1.3600000000000136,0.0014492753623188551,9.063188405797192
223,830.74,974.7,87.2,480.0,8.36,1,Apollo,1000,4.0,2500,831.0,966.8,1.0,0.2599999999999909,0.00026674874320302747,1.7068718580075322
224,831.0,966.8,83.9,487.0,9.57,1,Apollo,1000,4.0,2500,832.7,801.1,1.0,1.7000000000000455,0.0017583781547373246,11.195945386843494
225,832.7,801.1,71.2,630.0,26.59,1,Apollo,1000,4.0,2500,833.07,810.8,1.0,0.37000000000000455,0.00046186493571339976,2.6346623392835173
226,833.07,810.8,69.2,1050.0,44.91,1,Apollo,1000,4.0,2500,834.59,912.9,1.0,1.5199999999999818,0.0018746916625554783,10.766729156388623
227,834.59,912.9,66.1,797.0,30.18,1,Apollo,1000,4.0,2500,835.22,975.3,1.0,0.6299999999999955,0.000690108445612877,4.245271114032175
228,835.22,975.3,76.4,580.0,16.79,1,Apollo,1000,4.0,2500,836.82,957.5,1.0,1.6000000000000227,0.0016405208653747798,10.50130216343704
229,836.82,957.5,62.4,1024.0,32.97,1,Apollo,1000,4.0,2500,837.0,897.1,1.0,0.17999999999994998,0.000187989556135718,1.1899738903390948
230,837.0,897.1,69.6,777.0,27.36,1,Apollo,1000,4.0,2500,838.86,923.3,1.0,1.8600000000000136,0.002073347452903816,12.623368632259595
231,838.86,923.3,78.0,751.0,21.37,1,Apollo,1000,4.0,2500,839.14,911.4,1.0,0.2799999999999727,0.0003032600454889773,1.878150113722334
232,839.14,911.4,80.2,507.0,14.61,1,Apollo,1000,4.0,2500,840.72,910.1,1.0,1.580000000000041,0.0017335966644722854,10.653991661180877
233,840.72,910.1,69.0,551.0,26.14,1,Apollo,1000,4.0,2500,842.56,914.6,1.0,1.8399999999999181,0.002021755851005294,12.414389627512907
234,842.56,914.6,74.4,601.0,18.6,1,Apollo,1000,4.0,2500,844.71,578.0,1.0,2.150000000000091,0.0023507544281654177,14.476886070413908
235,844.71,578.0,85.6,556.0,15.86,1,Apollo,1000,4.0,2500,845.24,952.6,1.0,0.5299999999999727,0.0009169550173009908,4.412387543252368
236,845.24,952.6,70.2,626.0,26.66,1,Apollo,1000,4.0,2500,855.07,242.1,1.0,9.830000000000041,0.01031912660088184,65.11781650220476
237,855.07,242.1,52.6,852.0,43.15,1,Apollo,1000,4.0,2500,856.63,456.2,1.0,1.5599999999999454,0.006443618339528895,22.34904584882202
238,856.63,456.2,70.9,624.0,23.68,1,Apollo,1000,4.0,2500,858.75,677.5,1.0,2.1200000000000045,0.004647084612012286,20.097711530030733
239,858.75,677.5,87.8,327.0,3.94,1,Apollo,1000,4.0,2500,859.23,789.6,1.0,0.4800000000000182,0.0007084870848708756,3.6912177121772616
240,859.23,789.6,76.4,522.0,24.53,1,Apollo,1000,4.0,2500,862.83,373.5,1.0,3.6000000000000227,0.004559270516717354,25.798176291793474
241,862.83,373.5,88.4,535.0,0.27,1,Apollo,1000,4.0,2500,866.69,19.6,1.0,3.8600000000000136,0.010334672021419047,41.27668005354767
242,866.69,19.6,80.1,422.0,11.11,1,Apollo,1000,4.0,2500,867.11,19.8,1.0,0.4199999999999591,0.021428571428569337,55.251428571423176
243,867.11,19.8,47.7,1257.0,40.64,1,Apollo,1000,4.0,2500,868.64,720.3,1.0,1.5299999999999727,0.0772727272727259,199.30181818181464
244,868.64,720.3,49.0,736.0,37.29,1,Apollo,1000,4.0,2500,871.19,481.5,1.0,2.550000000000068,0.0035401915868389124,19.050478967097554
245,871.19,481.5,86.6,531.0,4.0,1,Apollo,1000,4.0,2500,872.63,349.2,1.0,1.4399999999999409,0.002990654205607354,13.236635514018149
246,872.63,349.2,71.4,606.0,19.15,1,Apollo,1000,4.0,2500,873.25,478.9,1.0,0.6200000000000045,0.001775486827033232,6.918717067583098
247,873.25,478.9,62.2,1100.0,29.2,1,Apollo,1000,4.0,2500,873.66,532.4,1.0,0.40999999999996817,0.00085612862810601,3.780321570264898
248,873.66,532.4,66.1,785.0,26.93,1,Apollo,1000,4.0,2500,874.87,547.0,1.0,1.2100000000000364,0.002272727272727341,10.5218181818185
249,874.87,547.0,65.5,760.0,24.7,1,Apollo,1000,4.0,2500,879.04,515.4,1.0,4.169999999999959,0.007623400365630638,35.73850091407643
250,879.04,515.4,58.1,945.0,36.5,1,Apollo,1000,4.0,2500,880.8,479.0,1.0,1.759999999999991,0.0034148234381063077,15.577058595265733
251,880.8,479.0,59.9,897.0,30.33,1,Apollo,1000,4.0,2500,882.52,461.5,1.0,1.7200000000000273,0.0035908141962422285,15.85703549060568
252,882.52,461.5,69.8,938.0,32.03,1,Apollo,1000,4.0,2500,883.1,610.0,1.0,0.5800000000000409,0.0012567713976165567,5.461928494041556
253,883.1,610.0,68.6,942.0,21.01,1,Apollo,1000,4.0,2500,884.7,690.2,1.0,1.6000000000000227,0.0026229508196721684,12.957377049180511
254,884.7,690.2,59.0,897.0,35.66,1,Apollo,1000,4.0,2500,885.05,672.8,1.0,0.34999999999990905,0.0005070993914805985,2.6677484787011325
255,885.05,672.8,60.7,846.0,31.3,1,Apollo,1000,4.0,2500,886.59,637.2,1.0,1.5400000000000773,0.0022889417360286526,11.882354340071942
256,886.59,637.2,60.4,1108.0,35.08,1,Apollo,1000,4.0,2500,887.1,590.8,1.0,0.5099999999999909,0.0008003766478342606,4.040941619585615
257,887.1,590.8,57.4,1193.0,35.89,1,Apollo,1000,4.0,2500,888.83,581.5,1.0,1.7300000000000182,0.002928232904536253,14.240582261340705
258,888.83,581.5,61.2,864.0,29.19,1,Apollo,1000,4.0,2500,889.03,659.5,1.0,0.1999999999999318,0.00034393809114347684,1.6598452278584193
259,889.03,659.5,71.2,974.0,23.27,1,Apollo,1000,4.0,2500,890.62,714.1,1.0,1.5900000000000318,0.0024109173616376524,12.387293404094258
260,890.62,714.1,61.7,927.0,29.68,1,Apollo,1000,4.0,2500,891.15,664.5,1.0,0.5299999999999727,0.0007421929701722066,3.9754824254304073
261,891.15,664.5,53.0,1065.0,36.24,1,Apollo,1000,4.0,2500,892.54,609.9,1.0,1.3899999999999864,0.0020917983446199946,10.789495861549932
262,892.54,609.9,57.0,942.0,31.37,1,Apollo,1000,4.0,2500,893.18,676.0,1.0,0.6399999999999864,0.0010493523528447063,5.183380882111711
263,893.18,676.0,62.3,839.0,27.85,1,Apollo,1000,4.0,2500,895.05,588.8,1.0,1.8700000000000045,0.0027662721893491195,14.395680473372817
264,895.05,588.8,64.5,905.0,25.72,1,Apollo,1000,4.0,2500,896.64,622.4,1.0,1.5900000000000318,0.0027004076086957064,13.111019021739393
265,896.64,622.4,60.6,917.0,30.96,1,Apollo,1000,4.0,2500,897.03,619.9,1.0,0.38999999999998636,0.0006266066838046053,3.126516709511459
266,897.03,619.9,54.1,962.0,34.62,1,Apollo,1000,4.0,2500,898.62,562.0,1.0,1.5900000000000318,0.0025649298273915664,12.772324568479043
267,898.62,562.0,61.0,1093.0,33.13,1,Apollo,1000,4.0,2500,899.01,630.5,1.0,0.38999999999998636,0.0006939501779359189,3.2948754448397426
268,899.01,630.5,55.6,1181.0,33.73,1,Apollo,1000,4.0,2500,901.06,606.8,1.0,2.0499999999999545,0.0032513877874701894,16.328469468675294
269,901.06,606.8,61.0,1118.0,30.79,1,Apollo,1000,4.0,2500,903.03,637.1,1.0,1.9700000000000273,0.0032465392221490237,15.996348055372668
270,903.03,637.1,56.7,1134.0,34.59,1,Apollo,1000,4.0,2500,904.5,584.1,1.0,1.4700000000000273,0.002307330089467944,11.64832522366997
271,904.5,584.1,61.2,1056.0,28.81,1,Apollo,1000,4.0,2500,905.02,579.3,1.0,0.5199999999999818,0.0008902585173771303,4.305646293442753
272,905.02,579.3,57.2,936.0,33.83,1,Apollo,1000,4.0,2500,906.53,340.8,1.0,1.509999999999991,0.002606594165371985,12.556485413429925
273,906.53,340.8,86.5,341.0,7.53,1,Apollo,1000,4.0,2500,907.09,197.6,1.0,0.5600000000000591,0.0016431924882630842,6.347981220657947
274,907.09,197.6,82.8,415.0,11.87,1,Apollo,1000,4.0,2500,908.72,370.1,1.0,1.6299999999999955,0.00824898785425099,27.142469635627457
275,908.72,370.1,76.7,665.0,18.53,1,Apollo,1000,4.0,2500,909.09,404.0,1.0,0.37000000000000455,0.0009997298027560242,3.9793245068900784
276,909.09,404.0,73.7,662.0,21.02,1,Apollo,1000,4.0,2500,910.64,518.6,1.0,1.5499999999999545,0.003836633663366224,15.791584158415377
277,910.64,518.6,81.5,796.0,14.36,1,Apollo,1000,4.0,2500,911.1,562.9,1.0,0.4600000000000364,0.0008870034708832171,4.0575086772081885
278,911.1,562.9,75.9,894.0,18.34,1,Apollo,1000,4.0,2500,912.83,634.3,1.0,1.7300000000000182,0.003073370047965923,14.603425119914881
279,912.83,634.3,77.6,669.0,17.32,1,Apollo,1000,4.0,2500,913.07,676.0,1.0,0.2400000000000091,0.00037836985653477706,1.905924641336979
280,913.07,676.0,77.6,641.0,18.33,1,Apollo,1000,4.0,2500,914.53,661.7,1.0,1.4599999999999227,0.002159763313609353,11.239408284023074
281,914.53,661.7,63.7,970.0,35.96,1,Apollo,1000,4.0,2500,915.15,586.5,1.0,0.6200000000000045,0.0009369805047604723,4.8224512619011985
282,915.15,586.5,56.7,1001.0,41.1,1,Apollo,1000,4.0,2500,920.63,250.3,1.0,5.480000000000018,0.009343563512361498,45.27890878090382
283,920.63,250.3,54.4,922.0,40.86,1,Apollo,1000,4.0,2500,925.0,221.1,1.0,4.3700000000000045,0.01745904914103078,61.12762285257697
284,925.0,221.1,37.9,1027.0,54.84,1,Apollo,1000,4.0,2500,926.61,131.9,1.0,1.6100000000000136,0.007281772953414807,24.644432383537072
285,926.61,131.9,49.8,659.0,48.68,1,Apollo,1000,4.0,2500,927.07,130.8,1.0,0.4600000000000364,0.0034874905231238543,10.558726307809781
286,927.07,130.8,59.3,652.0,32.54,1,Apollo,1000,4.0,2500,928.53,113.6,1.0,1.4599999999999227,0.011162079510702772,33.745198776756624
287,928.53,113.6,59.1,844.0,30.87,1,Apollo,1000,4.0,2500,929.09,129.2,1.0,0.5600000000000591,0.004929577464789253,14.563943661973369
288,929.09,129.2,81.1,448.0,16.38,1,Apollo,1000,4.0,2500,930.52,126.2,1.0,1.42999999999995,0.011068111455107972,33.39027863776973
289,930.52,126.2,53.3,670.0,38.76,1,Apollo,1000,4.0,2500,931.03,131.6,1.0,0.5099999999999909,0.004041204437400879,12.143011093502162
290,931.03,131.6,57.4,671.0,29.44,1,Apollo,1000,4.0,2500,934.68,253.5,1.0,3.6499999999999773,0.027735562310030222,83.93890577507547
291,934.68,253.5,57.1,778.0,35.22,1,Apollo,1000,4.0,2500,935.08,559.5,1.0,0.40000000000009095,0.0015779092702173211,5.544773175543666
292,935.08,559.5,71.5,963.0,25.23,1,Apollo,1000,4.0,2500,937.05,474.4,1.0,1.9699999999999136,0.0035210008936548943,16.68250223413689
293,937.05,474.4,61.3,985.0,30.25,1,Apollo,1000,4.0,2500,938.63,468.9,1.0,1.580000000000041,0.0033305227655987374,14.646306913997007
294,938.63,468.9,61.5,1112.0,34.45,1,Apollo,1000,4.0,2500,939.06,502.9,1.0,0.42999999999995,0.0009170398805714438,4.012599701428409
295,939.06,502.9,64.3,950.0,29.59,1,Apollo,1000,4.0,2500,940.63,324.3,1.0,1.57000000000005,0.0031218930204813086,14.084732551203473
296,940.63,324.3,73.2,910.0,31.8,1,Apollo,1000,4.0,2500,941.32,374.9,1.0,0.6900000000000546,0.0021276595744682534,8.079148936170853
297,941.32,374.9,88.9,688.0,3.61,1,Apollo,1000,4.0,2500,942.54,885.4,1.0,1.2199999999999136,0.003254201120298516,13.015502800745944
298,942.54,885.4,60.0,965.0,31.91,1,Apollo,1000,4.0,2500,943.16,784.2,1.0,0.6200000000000045,0.000700248475265422,4.230621188163573
299,943.16,784.2,63.3,1147.0,32.25,1,Apollo,1000,4.0,2500,944.51,697.2,1.0,1.3500000000000227,0.0017214996174445584,9.703749043611488
300,944.51,697.2,58.0,1162.0,33.31,1,Apollo,1000,4.0,2500,945.2,648.6,1.0,0.6900000000000546,0.000989672977624863,5.234182444062376
301,945.2,648.6,60.9,1128.0,35.94,1,Apollo,1000,4.0,2500,945.67,607.1,1.0,0.4699999999999136,0.000724637681159287,3.691594202897872
302,945.67,607.1,60.9,1096.0,33.62,1,Apollo,1000,4.0,2500,946.88,532.2,1.0,1.2100000000000364,0.0019930818646022672,9.822704661505814
303,946.88,532.2,59.1,1002.0,33.49,1,Apollo,1000,4.0,2500,949.03,492.1,1.0,2.1499999999999773,0.0040398346486282925,18.69958662157064
304,949.03,492.1,76.0,797.0,15.98,1,Apollo,1000,4.0,2500,950.59,681.8,1.0,1.5600000000000591,0.0031700873806138163,14.165218451534777
305,950.59,681.8,67.0,1166.0,28.72,1,Apollo,1000,4.0,2500,951.08,651.2,1.0,0.4900000000000091,0.00071868583162219,3.7567145790555116
306,951.08,651.2,62.2,889.0,28.21,1,Apollo,1000,4.0,2500,952.54,644.1,1.0,1.4599999999999227,0.002242014742014623,11.445036855036248
307,952.54,644.1,62.4,920.0,30.41,1,Apollo,1000,4.0,2500,953.04,629.9,1.0,0.5,0.0007762769756249029,3.940692439062257
308,953.04,629.9,56.9,929.0,35.65,1,Apollo,1000,4.0,2500,955.06,595.3,1.0,2.019999999999982,0.0032068582314652835,16.097145578663138
309,955.06,595.3,57.6,962.0,34.28,1,Apollo,1000,4.0,2500,956.67,669.7,1.0,1.6100000000000136,0.0027045187300520977,13.2012968251303
310,956.67,669.7,69.4,1031.0,26.44,1,Apollo,1000,4.0,2500,958.74,537.4,1.0,2.07000000000005,0.003090936240107585,16.007340600269163
311,958.74,537.4,61.0,893.0,32.08,1,Apollo,1000,4.0,2500,959.05,543.3,1.0,0.30999999999994543,0.0005768515072570626,2.682128768142438
312,959.05,543.3,57.1,975.0,38.26,1,Apollo,1000,4.0,2500,960.57,561.6,1.0,1.5200000000000955,0.0027977176513898317,13.07429412847496
313,960.57,561.6,61.2,1000.0,29.02,1,Apollo,1000,4.0,2500,961.04,589.0,1.0,0.4699999999999136,0.000836894586894433,3.972236467235737
314,961.04,589.0,54.7,1016.0,39.17,1,Apollo,1000,4.0,2500,962.77,509.8,1.0,1.7300000000000182,0.0029371816638370427,14.26295415959268
315,962.77,509.8,55.0,1054.0,36.62,1,Apollo,1000,4.0,2500,963.18,484.6,1.0,0.40999999999996817,0.0008042369556688273,3.650592389171941
316,963.18,484.6,57.6,900.0,34.3,1,Apollo,1000,4.0,2500,964.6,524.5,1.0,1.4200000000000728,0.002930251754024087,13.005629385060509
317,964.6,524.5,69.8,759.0,20.35,1,Apollo,1000,4.0,2500,965.24,599.3,1.0,0.6399999999999864,0.0012202097235462085,5.610524308865466
318,965.24,599.3,48.9,1029.0,42.76,1,Apollo,1000,4.0,2500,966.51,503.0,1.0,1.2699999999999818,0.0021191389954947136,10.377847488736712
319,966.51,503.0,59.9,878.0,30.22,1,Apollo,1000,4.0,2500,968.5,399.2,1.0,1.990000000000009,0.003956262425447334,17.850656063618374
320,968.5,399.2,63.0,1287.0,45.61,1,Apollo,1000,4.0,2500,969.03,392.1,1.0,0.5299999999999727,0.0013276553106211742,5.439138276552827
321,969.03,392.1,67.7,990.0,22.71,1,Apollo,1000,4.0,2500,970.55,531.3,1.0,1.5199999999999818,0.003876562101504672,15.771405253761607
322,970.55,531.3,62.6,917.0,29.43,1,Apollo,1000,4.0,2500,972.79,524.0,1.0,2.240000000000009,0.0042160737812911905,19.500184453228012
323,972.79,524.0,55.0,927.0,30.87,1,Apollo,1000,4.0,2500,973.04,536.8,1.0,0.25,0.00047709923664122136,2.192748091603053
324,973.04,536.8,57.2,987.0,34.79,1,Apollo,1000,4.0,2500,974.53,538.8,1.0,1.490000000000009,0.0027757078986587356,12.899269746646876
325,974.53,538.8,53.1,920.0,34.79,1,Apollo,1000,4.0,2500,976.75,569.6,1.0,2.2200000000000273,0.004120267260579116,19.180668151447897
326,976.75,569.6,69.3,818.0,22.36,1,Apollo,1000,4.0,2500,977.35,612.1,1.0,0.6000000000000227,0.0010533707865168938,5.033426966292326
327,977.35,612.1,70.9,749.0,22.42,1,Apollo,1000,4.0,2500,980.31,753.0,1.0,2.9599999999999227,0.00483581114197014,23.92952785492504
328,980.31,753.0,71.0,1122.0,21.52,1,Apollo,1000,4.0,2500,982.86,740.4,1.0,2.550000000000068,0.0033864541832670228,18.66613545816783
329,982.86,740.4,57.8,875.0,34.75,1,Apollo,1000,4.0,2500,989.09,435.4,1.0,6.230000000000018,0.008414370610480846,45.95592652620219
330,989.09,435.4,64.0,904.0,25.9,1,Apollo,1000,4.0,2500,991.08,607.4,1.0,1.990000000000009,0.004570509875976135,19.38627468994037
331,991.08,607.4,49.1,934.0,41.89,1,Apollo,1000,4.0,2500,999.08,487.7,1.0,8.0,0.01317089232795522,64.92723081988805
332,999.08,487.7,52.4,903.0,37.85,1,Apollo,1000,4.0,2500,1001.19,388.8,1.0,2.1100000000000136,0.004326430182489263,19.256075456223215
333,1001.19,388.8,69.9,892.0,28.68,1,Apollo,1000,4.0,2500,1002.52,447.6,1.0,1.3299999999999272,0.003420781893003928,13.87195473250953
334,1002.52,447.6,76.3,791.0,21.24,1,Apollo,1000,4.0,2500,1003.19,529.5,1.0,0.6700000000000728,0.0014968722073281338,6.4221805183206255
335,1003.19,529.5,70.6,926.0,23.09,1,Apollo,1000,4.0,2500,1004.53,616.5,1.0,1.3399999999999181,0.0025306893295560305,11.686723323889748
336,1004.53,616.5,71.8,977.0,21.96,1,Apollo,1000,4.0,2500,1005.11,625.8,1.0,0.5800000000000409,0.0009407948094080145,4.6719870235202
337,1005.11,625.8,71.8,807.0,22.46,1,Apollo,1000,4.0,2500,1006.71,694.7,1.0,1.6000000000000227,0.0025567273889421905,12.791818472355567
338,1006.71,694.7,79.8,914.0,20.41,1,Apollo,1000,4.0,2500,1007.43,854.0,1.0,0.7199999999999136,0.0010364185979558278,5.471046494889224
339,1007.43,854.0,60.9,1021.0,26.05,1,Apollo,1000,4.0,2500,1008.74,603.2,1.0,1.3100000000000591,0.0015339578454333243,9.074894613583547
340,1008.74,603.2,76.4,717.0,22.33,1,Apollo,1000,4.0,2500,1009.33,655.7,1.0,0.5900000000000318,0.0009781167108753842,4.805291777188588
341,1009.33,655.7,65.3,913.0,20.26,1,Apollo,1000,4.0,2500,1010.95,684.2,1.0,1.6200000000000045,0.002470642061918567,12.656605154796436
342,1010.95,684.2,61.8,889.0,33.17,1,Apollo,1000,4.0,2500,1011.12,689.5,1.0,0.16999999999995907,0.00024846536100549407,1.3011634025135714
343,1011.12,689.5,61.8,902.0,33.69,1,Apollo,1000,4.0,2500,1012.84,618.2,1.0,1.7200000000000273,0.0024945612762872042,13.11640319071812
344,1012.84,618.2,69.2,816.0,29.24,1,Apollo,1000,4.0,2500,1013.06,673.4,1.0,0.2199999999999136,0.00035587188612085666,1.769679715301796
345,1013.06,673.4,66.8,1066.0,29.09,1,Apollo,1000,4.0,2500,1014.61,655.8,1.0,1.5500000000000682,0.002301752301752403,11.95438075438128
346,1014.61,655.8,62.4,1065.0,30.49,1,Apollo,1000,4.0,2500,1015.15,680.2,1.0,0.5399999999999636,0.0008234217749313261,4.218554437328169
347,1015.15,680.2,58.0,1027.0,37.23,1,Apollo,1000,4.0,2500,1016.72,558.3,1.0,1.57000000000005,0.002308144663334387,12.050361658336168
348,1016.72,558.3,61.5,988.0,31.53,1,Apollo,1000,4.0,2500,1017.04,593.6,1.0,0.31999999999993634,0.0005731685473758487,2.712921368439367
349,1017.04,593.6,61.1,1109.0,33.36,1,Apollo,1000,4.0,2500,1018.56,523.1,1.0,1.5199999999999818,0.002560646900269511,12.481617250673704
350,1018.56,523.1,59.8,935.0,35.26,1,Apollo,1000,4.0,2500,1019.0,515.6,1.0,0.44000000000005457,0.0008411393614988617,3.8628484037473725
351,1019.0,515.6,58.5,963.0,35.1,1,Apollo,1000,4.0,2500,1020.62,495.1,1.0,1.6200000000000045,0.003141970519782786,14.334926299456983
352,1020.62,495.1,56.6,949.0,36.98,1,Apollo,1000,4.0,2500,1021.0,481.1,1.0,0.37999999999999545,0.0007675217127852867,3.4388042819631988
353,1021.0,481.1,55.1,1175.0,38.45,1,Apollo,1000,4.0,2500,1025.04,400.1,1.0,4.039999999999964,0.008397422573269515,37.15355643317364
354,1025.04,400.1,59.1,1019.0,34.24,1,Apollo,1000,4.0,2500,1027.0,556.6,1.0,1.9600000000000364,0.004898775306173548,20.086938265434014
355,1027.0,556.6,53.1,1035.0,41.88,1,Apollo,1000,4.0,2500,1028.55,589.0,1.0,1.5499999999999545,0.0027847646424720707,13.161911606179995
356,1028.55,589.0,60.4,926.0,33.09,1,Apollo,1000,4.0,2500,1029.09,625.8,1.0,0.5399999999999636,0.0009168081494057106,4.452020373514131
357,1029.09,625.8,58.4,1232.0,39.19,1,Apollo,1000,4.0,2500,1032.53,595.6,1.0,3.4400000000000546,0.005496963886225719,27.502409715564518
358,1032.53,595.6,50.3,1067.0,43.17,1,Apollo,1000,4.0,2500,1035.36,575.6,1.0,2.8299999999999272,0.00475151108126247,23.198777703155884
359,1035.36,575.6,57.5,1071.0,38.3,1,Apollo,1000,4.0,2500,1041.19,524.9,1.0,5.830000000000155,0.01012856150104266,48.64140375260727
360,1041.19,524.9,59.3,983.0,33.77,1,Apollo,1000,4.0,2500,1042.52,574.9,1.0,1.3299999999999272,0.0025338159649455653,11.654539912363623
361,1042.52,574.9,56.9,1100.0,40.6,1,Apollo,1000,4.0,2500,1043.03,585.1,1.0,0.5099999999999909,0.0008871108018785719,4.257777004696393
362,1043.03,585.1,80.3,1060.0,23.22,1,Apollo,1000,4.0,2500,1046.6,822.8,1.0,3.5699999999999363,0.006101521107502882,29.53380276875695
363,1046.6,822.8,73.7,1074.0,31.16,1,Apollo,1000,4.0,2500,1061.22,346.5,1.0,14.620000000000118,0.01776859504132246,102.90148760330663
364,1061.22,346.5,64.1,1077.0,29.06,1,Apollo,1000,4.0,2500,1064.58,407.5,1.0,3.3599999999999,0.009696969696969409,37.682424242423124
365,1064.58,407.5,56.7,1123.0,36.14,1,Apollo,1000,4.0,2500,1073.12,317.0,1.0,8.539999999999964,0.020957055214723838,86.55263803680944
366,1073.12,317.0,76.3,800.0,17.84,1,Apollo,1000,4.0,2500,1074.8,654.2,1.0,1.6800000000000637,0.005299684542586952,19.969211356467632
367,1074.8,654.2,72.1,800.0,18.95,1,Apollo,1000,4.0,2500,1076.61,667.7,1.0,1.8099999999999454,0.0027667380006113503,14.156845001528158
368,1076.61,667.7,57.7,1117.0,33.79,1,Apollo,1000,4.0,2500,1094.06,256.5,1.0,17.450000000000045,0.026134491538115985,135.13622884529013
369,1094.06,256.5,47.0,1094.0,43.07,1,Apollo,1000,4.0,2500,1097.07,196.0,1.0,3.009999999999991,0.01173489278752433,41.37723196881079
370,1097.07,196.0,46.8,1026.0,46.98,1,Apollo,1000,4.0,2500,1098.85,662.3,1.0,1.7799999999999727,0.009081632653061085,29.824081632652604
371,1098.85,662.3,76.0,637.0,20.64,1,Apollo,1000,4.0,2500,1099.02,673.6,1.0,0.17000000000007276,0.0002566812622679643,1.321703155670202
372,1099.02,673.6,69.9,1010.0,25.8,1,Apollo,1000,4.0,2500,1101.44,577.1,1.0,2.4200000000000728,0.0035926365795725546,18.661591448931677
373,1101.44,577.1,89.2,821.0,0.73,1,Apollo,1000,4.0,2500,1102.87,752.2,1.0,1.4299999999998363,0.0024779067752553046,11.914766938137607
374,1102.87,752.2,58.6,1019.0,40.33,1,Apollo,1000,4.0,2500,1103.1,697.2,1.0,0.2300000000000182,0.0003057697420898939,1.6844243552248075
375,1103.1,697.2,74.3,1036.0,34.08,1,Apollo,1000,4.0,2500,1105.03,615.7,1.0,1.9300000000000637,0.00276821572002304,14.640539300057855
376,1105.03,615.7,57.3,1148.0,37.85,1,Apollo,1000,4.0,2500,1108.79,696.9,1.0,3.759999999999991,0.006106870229007619,30.30717557251901
377,1108.79,696.9,53.1,1028.0,44.28,1,Apollo,1000,4.0,2500,1109.12,627.7,1.0,0.32999999999992724,0.00047352561343080396,2.503814033576719
378,1109.12,627.7,58.5,1231.0,37.07,1,Apollo,1000,4.0,2500,1111.04,618.2,1.0,1.9200000000000728,0.0030587860442887883,15.326965110722263
379,1111.04,618.2,56.6,1097.0,41.67,1,Apollo,1000,4.0,2500,1112.68,657.0,1.0,1.6400000000001,0.002652863151083953,13.192157877710283
380,1112.68,657.0,58.4,1132.0,41.65,1,Apollo,1000,4.0,2500,1113.24,700.9,1.0,0.5599999999999454,0.0008523592085235089,4.3708980213085535
381,1113.24,700.9,54.7,1150.0,39.7,1,Apollo,1000,4.0,2500,1115.2,598.1,1.0,1.9600000000000364,0.002796404622628102,14.8310115565704
382,1115.2,598.1,57.2,1180.0,35.81,1,Apollo,1000,4.0,2500,1130.59,481.4,1.0,15.389999999999873,0.0257314830295935,125.88870757398324
383,1130.59,481.4,56.4,1196.0,38.09,1,Apollo,1000,4.0,2500,1133.04,466.4,1.0,2.4500000000000455,0.0050893228084753755,22.52330702118862
384,1133.04,466.4,57.8,1209.0,36.64,1,Apollo,1000,4.0,2500,1134.08,510.6,1.0,1.0399999999999636,0.002229845626071963,9.734614065179763
385,1134.08,510.6,52.2,1148.0,40.6,1,Apollo,1000,4.0,2500,1134.76,501.1,1.0,0.6800000000000637,0.001331766549157978,6.0494163728952
386,1134.76,501.1,76.5,843.0,17.42,1,Apollo,1000,4.0,2500,1136.65,602.9,1.0,1.8900000000001,0.003771702255039114,16.989255637598184
387,1136.65,602.9,64.2,938.0,27.3,1,Apollo,1000,4.0,2500,1138.61,625.3,1.0,1.959999999999809,0.0032509537236686164,15.967384309170777
388,1138.61,625.3,57.0,1073.0,34.9,1,Apollo,1000,4.0,2500,1140.53,647.6,1.0,1.9200000000000728,0.003070526147449341,15.356315368623644
389,1140.53,647.6,90.2,787.0,8.14,1,Apollo,1000,4.0,2500,1141.3,712.7,1.0,0.7699999999999818,0.001189005558987001,6.0525138974674295
390,1141.3,712.7,86.2,743.0,5.45,1,Apollo,1000,4.0,2500,1142.57,1184.0,1.0,1.2699999999999818,0.00178195594219164,9.534889855479026
391,1142.57,1184.0,58.9,933.0,43.55,1,Apollo,1000,4.0,2500,1143.17,1035.4,1.0,0.6000000000001364,0.0005067567567568719,3.6668918918927256
392,1143.17,1035.4,64.4,1017.0,35.54,1,Apollo,1000,4.0,2500,1144.91,1293.9,1.0,1.740000000000009,0.0016805099478462517,11.161274869615665
393,1144.91,1293.9,81.4,641.0,10.17,1,Apollo,1000,4.0,2500,1150.7,507.8,1.0,5.789999999999964,0.004474843496406185,34.34710874101532
394,1150.7,507.8,63.8,1090.0,29.89,1,Apollo,1000,4.0,2500,1151.32,538.1,1.0,0.6199999999998909,0.0012209531311537826,5.53238282788402
395,1151.32,538.1,54.9,1150.0,36.31,1,Apollo,1000,4.0,2500,1155.21,379.2,1.0,3.8900000000001,0.0072291395651367775,33.63284891284235
396,1155.21,379.2,66.4,931.0,26.93,1,Apollo,1000,4.0,2500,1158.73,508.6,1.0,3.519999999999982,0.009282700421940881,37.28675105485213
397,1158.73,508.6,54.5,1105.0,35.77,1,Apollo,1000,4.0,2500,1161.17,494.0,1.0,2.4400000000000546,0.004797483287455868,21.753708218639886
398,1161.17,494.0,56.0,1225.0,37.97,1,Apollo,1000,4.0,2500,1162.93,577.1,1.0,1.759999999999991,0.0035627530364372288,15.946882591093036
399,1162.93,577.1,60.6,996.0,30.62,1,Apollo,1000,4.0,2500,1163.1,614.8,1.0,0.16999999999984539,0.0002945763299252216,1.4164408248124354
400,1163.1,614.8,60.6,1005.0,30.96,1,Apollo,1000,4.0,2500,1167.09,518.7,1.0,3.990000000000009,0.006489915419648681,32.184788549121734
401,1167.09,518.7,55.6,1145.0,35.11,1,Apollo,1000,4.0,2500,1169.14,488.0,1.0,2.050000000000182,0.003952188162714828,18.080470406787796
402,1169.14,488.0,44.4,1228.0,43.87,1,Apollo,1000,4.0,2500,1177.02,405.4,1.0,7.879999999999882,0.016147540983606316,71.88885245901531
403,1177.02,405.4,41.1,1359.0,47.66,1,Apollo,1000,4.0,2500,1178.74,494.8,1.0,1.7200000000000273,0.004242723236309885,17.486808090774822
404,1178.74,494.8,91.9,490.0,0.16,1,Apollo,1000,4.0,2500,1179.45,555.8,1.0,0.7100000000000364,0.0014349232012935253,6.427308003233959
405,1179.45,555.8,82.3,967.0,7.23,1,Apollo,1000,4.0,2500,1181.11,681.1,1.0,1.6599999999998545,0.0029866858582221207,14.106714645554721
406,1181.11,681.1,56.1,1090.0,29.51,1,Apollo,1000,4.0,2500,1183.16,540.7,1.0,2.050000000000182,0.0030098370283367817,15.724592570842681
407,1183.16,540.7,64.8,1066.0,23.08,1,Apollo,1000,4.0,2500,1184.78,528.2,1.0,1.6199999999998909,0.0029961161457368055,13.970290364341576
408,1184.78,528.2,54.4,1139.0,33.92,1,Apollo,1000,4.0,2500,1186.64,557.9,1.0,1.8600000000001273,0.003521393411586761,16.24348352896741
409,1186.64,557.9,56.3,1089.0,33.69,1,Apollo,1000,4.0,2500,1190.77,378.1,1.0,4.129999999999882,0.007402760351317228,35.026900878292594
410,1190.77,378.1,68.7,992.0,25.48,1,Apollo,1000,4.0,2500,1191.0,507.6,1.0,0.2300000000000182,0.0006083046813012911,2.4407617032533007
411,1191.0,507.6,62.4,1193.0,31.8,1,Apollo,1000,4.0,2500,1192.6,454.5,1.0,1.599999999999909,0.0031520882584710574,14.28022064617728
412,1192.6,454.5,59.0,1136.0,36.35,1,Apollo,1000,4.0,2500,1193.04,444.4,1.0,0.44000000000005457,0.0009680968096810882,4.180242024202939
413,1193.04,444.4,59.6,1070.0,33.6,1,Apollo,1000,4.0,2500,1194.65,418.3,1.0,1.6100000000001273,0.003622862286228909,15.497155715572783
414,1194.65,418.3,57.0,1304.0,37.1,1,Apollo,1000,4.0,2500,1195.07,407.7,1.0,0.4199999999998454,0.001004064068849738,4.1901601721237265
415,1195.07,407.7,57.0,1115.0,41.56,1,Apollo,1000,4.0,2500,1197.21,948.7,1.0,2.1400000000001,0.005248957566838607,21.682393917096917
416,1197.21,948.7,70.6,731.0,28.07,1,Apollo,1000,4.0,2500,1198.67,677.6,1.0,1.4600000000000364,0.0015389480341520356,9.687370085380234
417,1198.67,677.6,92.0,497.0,2.85,1,Apollo,1000,4.0,2500,1201.26,681.3,1.0,2.589999999999918,0.003822314049586656,19.915785123966312
418,1201.26,681.3,59.6,1278.0,36.8,1,Apollo,1000,4.0,2500,1203.08,573.9,1.0,1.8199999999999363,0.0026713635696461713,13.958408924115174
419,1203.08,573.9,63.7,1223.0,30.24,1,Apollo,1000,4.0,2500,1204.7,601.6,1.0,1.6200000000001182,0.0028227914270780945,13.536978567695709
420,1204.7,601.6,62.0,1231.0,39.9,1,Apollo,1000,4.0,2500,1205.06,600.0,1.0,0.35999999999989996,0.0005984042553189826,2.9360106382970566
421,1205.06,600.0,67.8,1223.0,27.49,1,Apollo,1000,4.0,2500,1206.59,609.8,1.0,1.5299999999999727,0.002549999999999954,12.494999999999777
422,1206.59,609.8,58.2,1277.0,37.0,1,Apollo,1000,4.0,2500,1207.06,566.9,1.0,0.4700000000000273,0.0007707445063955843,3.80686126598907
423,1207.06,566.9,57.2,1176.0,38.02,1,Apollo,1000,4.0,2500,1209.07,519.2,1.0,2.009999999999991,0.0035455988710530796,16.90399717763266
424,1209.07,519.2,55.6,1079.0,38.05,1,Apollo,1000,4.0,2500,1211.06,478.9,1.0,1.990000000000009,0.003832819722650248,17.542049306625657
425,1211.06,478.9,66.3,1344.0,33.51,1,Apollo,1000,4.0,2500,1212.54,463.1,1.0,1.4800000000000182,0.00309041553560246,13.646038839006223
426,1212.54,463.1,64.5,1253.0,28.52,1,Apollo,1000,4.0,2500,1213.12,477.2,1.0,0.5799999999999272,0.0012524292809326868,5.4510732023314254
427,1213.12,477.2,57.8,1110.0,35.69,1,Apollo,1000,4.0,2500,1214.6,478.3,1.0,1.4800000000000182,0.0031014249790444638,13.673562447611232
428,1214.6,478.3,56.9,1133.0,39.13,1,Apollo,1000,4.0,2500,1215.13,481.4,1.0,0.5300000000002001,0.0011080911561785491,4.890227890447173
429,1215.13,481.4,60.2,1031.0,32.45,1,Apollo,1000,4.0,2500,1216.61,488.3,1.0,1.4799999999997908,0.0030743664312417756,13.605916078103602
430,1216.61,488.3,76.6,1140.0,18.23,1,Apollo,1000,4.0,2500,1217.2,553.4,1.0,0.5900000000001455,0.0012082736022939698,5.380684005735507
431,1217.2,553.4,66.3,937.0,24.36,1,Apollo,1000,4.0,2500,1218.7,433.1,1.0,1.5,0.0027105168052041924,12.776292013010481
432,1218.7,433.1,49.3,1146.0,38.16,1,Apollo,1000,4.0,2500,1221.14,432.7,1.0,2.4400000000000546,0.005633802816901534,23.84450704225405
433,1221.14,432.7,51.0,1333.0,44.53,1,Apollo,1000,4.0,2500,1222.73,643.8,1.0,1.5899999999999181,0.003674601340420426,15.546503351050736
434,1222.73,643.8,80.0,770.0,13.29,1,Apollo,1000,4.0,2500,1223.32,758.6,1.0,0.5899999999999181,0.0009164336750542377,4.651084187635266
435,1223.32,758.6,62.1,1046.0,35.11,1,Apollo,1000,4.0,2500,1224.72,609.2,1.0,1.400000000000091,0.0018455048774058673,10.213762193515032
436,1224.72,609.2,60.6,984.0,31.24,1,Apollo,1000,4.0,2500,1225.4,657.3,1.0,0.6800000000000637,0.0011162179908077209,5.510544977019556
437,1225.4,657.3,57.3,1154.0,32.64,1,Apollo,1000,4.0,2500,1228.66,524.9,1.0,3.259999999999991,0.004959683553932741,25.439208884831814
438,1228.66,524.9,54.5,1382.0,38.99,1,Apollo,1000,4.0,2500,1233.04,424.5,1.0,4.379999999999882,0.008344446561249537,38.38111640312337
439,1233.04,424.5,53.2,1184.0,40.36,1,Apollo,1000,4.0,2500,1234.57,648.4,1.0,1.5299999999999727,0.0036042402826854483,15.130600706713512
440,1234.57,648.4,55.5,1192.0,39.26,1,Apollo,1000,4.0,2500,1236.71,542.5,1.0,2.1400000000001,0.003300431832202499,16.81107958050665
441,1236.71,542.5,64.9,1296.0,33.58,1,Apollo,1000,4.0,2500,1239.01,487.2,1.0,2.2999999999999545,0.004239631336405446,19.799078341013434
442,1239.01,487.2,53.7,1224.0,36.68,1,Apollo,1000,4.0,2500,1240.77,492.2,1.0,1.759999999999991,0.0036124794745484214,16.07119868637102
443,1240.77,492.2,58.9,1200.0,37.15,1,Apollo,1000,4.0,2500,1241.04,485.9,1.0,0.2699999999999818,0.0005485574969524214,2.4513937423809806
444,1241.04,485.9,59.9,1072.0,31.3,1,Apollo,1000,4.0,2500,1242.69,472.7,1.0,1.650000000000091,0.0033957604445361,15.089401111340614
445,1242.69,472.7,58.2,1169.0,35.51,1,Apollo,1000,4.0,2500,1243.26,432.9,1.0,0.5699999999999363,0.0012058387983920802,5.294596995979946
446,1243.26,432.9,57.9,1208.0,32.54,1,Apollo,1000,4.0,2500,1244.56,463.9,1.0,1.2999999999999545,0.003003003003002898,12.707507507507064
447,1244.56,463.9,58.0,1364.0,33.04,1,Apollo,1000,4.0,2500,1249.15,475.1,1.0,4.5900000000001455,0.009894373787454508,43.095934468636855
448,1249.15,475.1,69.1,1182.0,33.89,1,Apollo,1000,4.0,2500,1253.33,326.9,1.0,4.179999999999836,0.008798147758366315,38.71536939591513
449,1253.33,326.9,50.6,1268.0,1.23,1,Apollo,1000,4.0,2500,1267.04,168.1,1.0,13.710000000000036,0.04193943101866025,159.68857754665078
450,1267.04,168.1,45.5,1113.0,32.86,1,Apollo,1000,4.0,2500,1269.06,144.3,1.0,2.019999999999982,0.012016656751933266,38.12164187983309
451,1269.06,144.3,68.3,322.0,36.43,1,Apollo,1000,4.0,2500,1286.62,506.0,1.0,17.559999999999945,0.1216909216909213,374.46730422730303
452,1286.62,506.0,83.2,370.0,35.42,1,Apollo,1000,4.0,2500,1287.24,499.4,1.0,0.6200000000001182,0.0012252964426879807,5.543241106720425
453,1287.24,499.4,80.1,521.0,26.26,1,Apollo,1000,4.0,2500,1288.73,452.6,1.0,1.490000000000009,0.002983580296355645,13.418950740889148
454,1288.73,452.6,77.5,265.0,31.9,1,Apollo,1000,4.0,2500,1289.22,444.4,1.0,0.4900000000000091,0.0010826336721166793,4.666584180291735
455,1289.22,444.4,80.3,384.0,28.0,1,Apollo,1000,4.0,2500,1290.66,432.7,1.0,1.4400000000000546,0.0032403240324033636,13.860810081008626
456,1290.66,432.7,78.2,284.0,31.72,1,Apollo,1000,4.0,2500,1291.09,417.5,1.0,0.4299999999998363,0.000993760110930983,4.204400277326803
457,1291.09,417.5,79.9,283.0,27.8,1,Apollo,1000,4.0,2500,1292.55,262.7,1.0,1.4600000000000364,0.0034970059880240394,14.582514970060243
458,1292.55,262.7,81.4,340.0,34.21,1,Apollo,1000,4.0,2500,1293.1,294.8,1.0,0.5499999999999545,0.002093642938713188,7.434107346782788
459,1293.1,294.8,84.6,322.0,23.32,1,Apollo,1000,4.0,2500,1294.73,418.1,1.0,1.6300000000001091,0.005529172320217466,20.342930800544103
460,1294.73,418.1,80.0,550.0,26.44,1,Apollo,1000,4.0,2500,1295.21,406.3,1.0,0.4800000000000182,0.001148050705572873,4.790126763932255
461,1295.21,406.3,77.5,538.0,29.12,1,Apollo,1000,4.0,2500,1296.55,384.1,1.0,1.3399999999999181,0.003298055623923008,13.605139059807193
462,1296.55,384.1,80.3,228.0,26.89,1,Apollo,1000,4.0,2500,1297.08,389.0,1.0,0.5299999999999727,0.0013798489976567891,5.569622494141864
463,1297.08,389.0,80.1,528.0,28.2,1,Apollo,1000,4.0,2500,1298.54,376.4,1.0,1.4600000000000364,0.0037532133676093484,15.223033419023517
464,1298.54,376.4,77.5,285.0,25.32,1,Apollo,1000,4.0,2500,1299.0,406.1,1.0,0.4600000000000364,0.0012221041445271957,4.895260361318135
465,1299.0,406.1,77.6,262.0,29.64,1,Apollo,1000,4.0,2500,1300.61,371.0,1.0,1.6099999999999,0.003964540753508741,16.351351883771454
466,1300.61,371.0,75.1,491.0,31.58,1,Apollo,1000,4.0,2500,1301.25,369.1,1.0,0.6400000000001,0.0017250673854450136,6.872668463612934
467,1301.25,369.1,77.8,266.0,31.58,1,Apollo,1000,4.0,2500,1302.54,430.0,1.0,1.2899999999999636,0.0034949878081819655,13.897469520454768
468,1302.54,430.0,79.6,399.0,30.74,1,Apollo,1000,4.0,2500,1303.01,422.3,1.0,0.4700000000000273,0.001093023255814017,4.612558139535151
469,1303.01,422.3,81.3,431.0,26.92,1,Apollo,1000,4.0,2500,1304.53,455.3,1.0,1.5199999999999818,0.0035993369642433855,15.078342410608391
470,1304.53,455.3,77.8,260.0,29.77,1,Apollo,1000,4.0,2500,1305.06,470.6,1.0,0.5299999999999727,0.00116406764770475,5.030169119261766
471,1305.06,470.6,77.5,268.0,31.48,1,Apollo,1000,4.0,2500,1306.63,386.0,1.0,1.5700000000001637,0.0033361665958354515,14.620416489589283
472,1306.63,386.0,77.2,233.0,27.95,1,Apollo,1000,4.0,2500,1307.14,485.3,1.0,0.5099999999999909,0.0013212435233160384,5.34310880829006
473,1307.14,485.3,77.7,292.0,33.23,1,Apollo,1000,4.0,2500,1308.57,475.7,1.0,1.4299999999998363,0.0029466309499275424,13.086577374818201
474,1308.57,475.7,77.8,464.0,26.97,1,Apollo,1000,4.0,2500,1309.11,462.0,1.0,0.5399999999999636,0.0011351692243009536,4.997923060752239
475,1309.11,462.0,79.7,292.0,26.49,1,Apollo,1000,4.0,2500,1310.61,454.6,1.0,1.5,0.003246753246753247,14.116883116883118
476,1310.61,454.6,76.0,272.0,33.6,1,Apollo,1000,4.0,2500,1311.13,437.3,1.0,0.5200000000002092,0.0011438627364720837,4.939656841181046
477,1311.13,437.3,78.6,289.0,28.03,1,Apollo,1000,4.0,2500,1312.87,452.4,1.0,1.7399999999997817,0.003978961811113153,16.90740452778201
478,1312.87,452.4,84.7,413.0,25.75,1,Apollo,1000,4.0,2500,1313.18,497.6,1.0,0.3100000000001728,0.0006852343059243431,2.953085764811549
479,1313.18,497.6,86.3,103.0,22.19,1,Apollo,1000,4.0,2500,1314.63,520.6,1.0,1.4500000000000455,0.002913987138263757,13.084967845659573
480,1314.63,520.6,74.6,340.0,32.47,1,Apollo,1000,4.0,2500,1315.01,489.0,1.0,0.37999999999988177,0.0007299270072990429,3.344817518247134
481,1315.01,489.0,74.0,509.0,34.05,1,Apollo,1000,4.0,2500,1316.55,410.2,1.0,1.5399999999999636,0.0031492842535786577,14.0332106339465
482,1316.55,410.2,78.9,240.0,28.25,1,Apollo,1000,4.0,2500,1317.04,417.4,1.0,0.4900000000000091,0.00119453924914678,4.946348122866986
483,1317.04,417.4,78.0,245.0,30.72,1,Apollo,1000,4.0,2500,1318.56,549.3,1.0,1.5199999999999818,0.0036415908001916197,15.183977000478976
484,1318.56,549.3,80.2,473.0,28.42,1,Apollo,1000,4.0,2500,1319.04,539.8,1.0,0.4800000000000182,0.0008738394320044024,4.1045985800110785
485,1319.04,539.8,77.3,221.0,28.63,1,Apollo,1000,4.0,2500,1320.56,588.8,1.0,1.5199999999999818,0.002815857725083331,13.119644312708253
486,1320.56,588.8,84.0,389.0,31.06,1,Apollo,1000,4.0,2500,1321.22,582.3,1.0,0.6600000000000819,0.0011209239130436173,5.442309782609371
487,1321.22,582.3,80.9,110.0,22.09,1,Apollo,1000,4.0,2500,1322.6,516.7,1.0,1.3799999999998818,0.002369912416280065,11.44478104069969
488,1322.6,516.7,82.3,182.0,25.57,1,Apollo,1000,4.0,2500,1323.14,602.0,1.0,0.540000000000191,0.0010450938649123108,4.772734662281541
489,1323.14,602.0,80.5,228.0,30.09,1,Apollo,1000,4.0,2500,1324.67,491.6,1.0,1.5299999999999727,0.0025415282392026125,12.473820598006423
490,1324.67,491.6,76.2,261.0,34.16,1,Apollo,1000,4.0,2500,1325.07,467.1,1.0,0.3999999999998636,0.0008136696501217729,3.6341741253038866
491,1325.07,467.1,78.7,307.0,26.64,1,Apollo,1000,4.0,2500,1326.5,438.9,1.0,1.4300000000000637,0.0030614429458361452,13.373607364590619
492,1326.5,438.9,72.8,554.0,33.82,1,Apollo,1000,4.0,2500,1327.04,392.1,1.0,0.5399999999999636,0.0012303485987695685,5.235871496923776
493,1327.04,392.1,73.8,381.0,33.44,1,Apollo,1000,4.0,2500,1328.64,207.1,1.0,1.6000000000001364,0.004080591685794788,16.601479214487515
494,1328.64,207.1,92.3,70.0,31.98,1,Apollo,1000,4.0,2500,1329.13,247.0,1.0,0.4900000000000091,0.0023660067600193586,7.875016900048433
495,1329.13,247.0,67.3,352.0,39.16,1,Apollo,1000,4.0,2500,1330.64,469.0,1.0,1.509999999999991,0.006113360323886603,21.32340080971647
496,1330.64,469.0,83.9,285.0,21.41,1,Apollo,1000,4.0,2500,1331.16,575.0,1.0,0.5199999999999818,0.0011087420042643534,4.851855010660811
497,1331.16,575.0,84.8,152.0,19.06,1,Apollo,1000,4.0,2500,1332.63,628.1,1.0,1.4700000000000273,0.002556521739130482,12.271304347826314
498,1332.63,628.1,83.5,79.0,22.29,1,Apollo,1000,4.0,2500,1333.18,618.2,1.0,0.5499999999999545,0.0008756567425568454,4.389141856391932
499,1333.18,618.2,83.8,208.0,24.23,1,Apollo,1000,4.0,2500,1334.63,594.4,1.0,1.4500000000000455,0.0023455192494339135,11.663798123584966
500,1334.63,594.4,84.1,99.0,23.32,1,Apollo,1000,4.0,2500,1335.11,589.4,1.0,0.4799999999997908,0.0008075370121127032,3.938842530280921
501,1335.11,589.4,83.2,454.0,24.73,1,Apollo,1000,4.0,2500,1336.82,598.5,1.0,1.7100000000000364,0.0029012555140821793,14.093138785205593
502,1336.82,598.5,83.7,495.0,21.76,1,Apollo,1000,4.0,2500,1337.27,579.3,1.0,0.4500000000000455,0.0007518796992481962,3.6796992481206727
503,1337.27,579.3,78.2,189.0,22.39,1,Apollo,1000,4.0,2500,1338.61,566.1,1.0,1.3399999999999181,0.002313136544104813,11.142841360261706
504,1338.61,566.1,78.1,233.0,29.72,1,Apollo,1000,4.0,2500,1339.24,575.7,1.0,0.6300000000001091,0.0011128775834660116,5.302193958665466
505,1339.24,575.7,80.0,257.0,24.48,1,Apollo,1000,4.0,2500,1340.56,598.9,1.0,1.3199999999999363,0.002292860865033761,11.012152162584147
506,1340.56,598.9,87.1,257.0,18.12,1,Apollo,1000,4.0,2500,1341.09,596.5,1.0,0.5299999999999727,0.0008849557522123438,4.332389380530751
507,1341.09,596.5,82.5,96.0,23.13,1,Apollo,1000,4.0,2500,1342.72,582.3,1.0,1.6300000000001091,0.0027326068734285147,13.351517183571723
508,1342.72,582.3,94.8,308.0,13.66,1,Apollo,1000,4.0,2500,1344.73,585.8,1.0,2.009999999999991,0.0034518289541473316,16.66957238536829
509,1344.73,585.8,86.2,249.0,18.18,1,Apollo,1000,4.0,2500,1345.22,598.3,1.0,0.4900000000000091,0.0008364629566405071,4.051157391601304
510,1345.22,598.3,83.5,116.0,21.11,1,Apollo,1000,4.0,2500,1346.58,579.0,1.0,1.3599999999999,0.0022731071368876817,11.122767842218803
511,1346.58,579.0,77.8,484.0,30.17,1,Apollo,1000,4.0,2500,1347.24,600.8,1.0,0.6600000000000819,0.0011398963730571362,5.489740932643167
512,1347.24,600.8,77.9,241.0,27.33,1,Apollo,1000,4.0,2500,1348.54,499.0,1.0,1.2999999999999545,0.00216378162450059,10.609454061251293
513,1348.54,499.0,78.4,163.0,26.18,1,Apollo,1000,4.0,2500,1349.2,448.0,1.0,0.6600000000000819,0.0013226452905813263,5.946613226453643
514,1349.2,448.0,70.1,285.0,39.14,1,Apollo,1000,4.0,2500,1350.58,395.8,1.0,1.3799999999998818,0.003080357142856879,13.220892857141724
515,1350.58,395.8,75.5,484.0,38.02,1,Apollo,1000,4.0,2500,1352.72,532.4,1.0,2.1400000000001,0.005406771096513643,22.076927741284507
516,1352.72,532.4,76.0,547.0,32.44,1,Apollo,1000,4.0,2500,1353.32,528.2,1.0,0.599999999999909,0.001126972201352196,5.217430503380126
517,1353.32,528.2,75.8,310.0,34.46,1,Apollo,1000,4.0,2500,1354.51,537.2,1.0,1.1900000000000546,0.0022529344945097585,10.392336236274614
518,1354.51,537.2,74.0,297.0,28.77,1,Apollo,1000,4.0,2500,1355.15,549.6,1.0,0.6400000000001,0.0011913626209979523,5.538406552495282
519,1355.15,549.6,73.1,162.0,30.97,1,Apollo,1000,4.0,2500,1356.7,551.7,1.0,1.5499999999999545,0.0028202328966520276,13.250582241629887
520,1356.7,551.7,74.3,393.0,34.52,1,Apollo,1000,4.0,2500,1357.0,567.5,1.0,0.2999999999999545,0.0005437737901032346,2.5594344752579046
521,1357.0,567.5,67.4,527.0,33.51,1,Apollo,1000,4.0,2500,1358.53,347.5,1.0,1.5299999999999727,0.002696035242290701,12.860088105726643
522,1358.53,347.5,69.7,424.0,37.3,1,Apollo,1000,4.0,2500,1359.14,320.2,1.0,0.6100000000001273,0.001755395683453604,6.828489208634519
523,1359.14,320.2,66.5,441.0,39.41,1,Apollo,1000,4.0,2500,1360.54,230.1,1.0,1.3999999999998636,0.004372267332916501,16.530668332290706
524,1360.54,230.1,68.9,177.0,35.34,1,Apollo,1000,4.0,2500,1361.02,237.5,1.0,0.4800000000000182,0.0020860495436767416,7.135123859191927
525,1361.02,237.5,88.8,421.0,17.77,1,Apollo,1000,4.0,2500,1362.74,592.3,1.0,1.7200000000000273,0.007242105263158009,24.98526315789513
526,1362.74,592.3,77.0,254.0,30.23,1,Apollo,1000,4.0,2500,1363.04,606.3,1.0,0.2999999999999545,0.000506500084416604,2.466250211041328
527,1363.04,606.3,82.0,434.0,25.26,1,Apollo,1000,4.0,2500,1364.75,589.5,1.0,1.7100000000000364,0.0028203859475507773,13.890964868877088
528,1364.75,589.5,84.5,284.0,19.21,1,Apollo,1000,4.0,2500,1365.09,604.8,1.0,0.33999999999991815,0.0005767599660728044,2.8018999151816835
529,1365.09,604.8,86.3,213.0,18.51,1,Apollo,1000,4.0,2500,1366.75,623.9,1.0,1.6600000000000819,0.00274470899470913,13.501772486773152
530,1366.75,623.9,82.5,405.0,20.4,1,Apollo,1000,4.0,2500,1367.23,599.1,1.0,0.4800000000000182,0.0007693540631511751,3.8433851578780107
531,1367.23,599.1,79.3,309.0,23.55,1,Apollo,1000,4.0,2500,1368.73,567.5,1.0,1.5,0.002503755633450175,12.259389083625438
532,1368.73,567.5,80.6,171.0,22.66,1,Apollo,1000,4.0,2500,1370.69,578.4,1.0,1.9600000000000364,0.0034537444933921344,16.47436123348048
533,1370.69,578.4,88.5,55.0,20.05,1,Apollo,1000,4.0,2500,1371.03,591.8,1.0,0.33999999999991815,0.0005878284923926662,2.829571230981338
534,1371.03,591.8,88.1,69.0,20.63,1,Apollo,1000,4.0,2500,1372.53,639.1,1.0,1.5,0.0025346400811084827,12.336600202771207
535,1372.53,639.1,88.3,67.0,20.27,1,Apollo,1000,4.0,2500,1373.19,589.1,1.0,0.6600000000000819,0.0010327022375216427,5.221755593804434
536,1373.19,589.1,89.3,86.0,20.41,1,Apollo,1000,4.0,2500,1374.51,599.7,1.0,1.3199999999999363,0.002240706161941837,10.881765404854338
537,1374.51,599.7,88.3,97.0,20.49,1,Apollo,1000,4.0,2500,1375.01,600.2,1.0,0.5,0.000833750208437552,4.084375521093881
538,1375.01,600.2,86.3,477.0,20.61,1,Apollo,1000,4.0,2500,1377.02,589.3,1.0,2.009999999999991,0.0033488837054315075,16.41220926357873
539,1377.02,589.3,100.5,99.0,9.54,1,Apollo,1000,4.0,2500,1378.55,589.0,1.0,1.5299999999999727,0.002596300695740663,12.61075173935155
540,1378.55,589.0,89.8,132.0,23.26,1,Apollo,1000,4.0,2500,1379.05,627.8,1.0,0.5,0.0008488964346349745,4.122241086587437
541,1379.05,627.8,89.6,324.0,21.79,1,Apollo,1000,4.0,2500,1380.71,603.3,1.0,1.6600000000000819,0.00264415418923237,13.250385473081252
542,1380.71,603.3,92.0,347.0,18.37,1,Apollo,1000,4.0,2500,1381.07,604.2,1.0,0.35999999999989996,0.0005967180507208686,2.931795126801771
543,1381.07,604.2,93.6,32.0,15.62,1,Apollo,1000,4.0,2500,1382.69,623.0,1.0,1.6200000000001182,0.002681231380337832,13.183078450845052
544,1382.69,623.0,90.0,502.0,19.78,1,Apollo,1000,4.0,2500,1383.02,591.3,1.0,0.32999999999992724,0.0005296950240769297,2.6442375601920336
545,1383.02,591.3,91.2,100.0,18.41,1,Apollo,1000,4.0,2500,1384.7,576.3,1.0,1.6800000000000637,0.0028411973617454146,13.82299340436379
546,1384.7,576.3,91.7,35.0,15.28,1,Apollo,1000,4.0,2500,1385.2,594.1,1.0,0.5,0.0008676036786395975,4.169009196598994
547,1385.2,594.1,89.4,130.0,17.14,1,Apollo,1000,4.0,2500,1386.54,609.0,1.0,1.3399999999999181,0.002255512539976297,10.998781349940415
548,1386.54,609.0,86.8,95.0,20.7,1,Apollo,1000,4.0,2500,1387.05,599.6,1.0,0.5099999999999909,0.0008374384236453053,4.133596059113227
549,1387.05,599.6,85.3,461.0,25.53,1,Apollo,1000,4.0,2500,1388.54,623.1,1.0,1.490000000000009,0.002484989993328901,12.172474983322289
550,1388.54,623.1,81.7,285.0,27.77,1,Apollo,1000,4.0,2500,1389.02,605.4,1.0,0.4800000000000182,0.0007703418391911702,3.8458545979779983
551,1389.02,605.4,77.7,157.0,30.5,1,Apollo,1000,4.0,2500,1390.67,554.4,1.0,1.650000000000091,0.0027254707631319637,13.413676907830272
552,1390.67,554.4,77.9,371.0,35.18,1,Apollo,1000,4.0,2500,1391.06,510.7,1.0,0.38999999999987267,0.0007034632034629739,3.318658008656925
553,1391.06,510.7,75.4,312.0,35.81,1,Apollo,1000,4.0,2500,1392.61,479.6,1.0,1.5499999999999545,0.003035049931466525,13.787624828666132
554,1392.61,479.6,71.2,331.0,36.5,1,Apollo,1000,4.0,2500,1393.12,441.0,1.0,0.5099999999999909,0.0010633861551292553,4.698465387823102
555,1393.12,441.0,74.3,640.0,35.61,1,Apollo,1000,4.0,2500,1394.74,400.9,1.0,1.6200000000001182,0.0036734693877553703,15.663673469388899
556,1394.74,400.9,84.5,595.0,24.12,1,Apollo,1000,4.0,2500,1395.25,460.6,1.0,0.5099999999999909,0.0012721376901970339,5.220344225492548
557,1395.25,460.6,77.2,443.0,28.25,1,Apollo,1000,4.0,2500,1396.5,586.2,1.0,1.25,0.002713851498046027,11.784628745115068
558,1396.5,586.2,69.9,453.0,32.86,1,Apollo,1000,4.0,2500,1397.05,447.4,1.0,0.5499999999999545,0.0009382463323097143,4.5456158307741035
559,1397.05,447.4,64.8,252.0,41.5,1,Apollo,1000,4.0,2500,1398.56,286.4,1.0,1.509999999999991,0.003375055878408563,14.47763969602137
560,1398.56,286.4,72.9,339.0,33.96,1,Apollo,1000,4.0,2500,1399.05,270.4,1.0,0.4900000000000091,0.0017108938547486354,6.237234636871625
561,1399.05,270.4,70.5,519.0,37.92,1,Apollo,1000,4.0,2500,1400.6,251.8,1.0,1.5499999999999545,0.0057322485207098916,20.530621301774545
562,1400.6,251.8,69.1,414.0,36.35,1,Apollo,1000,4.0,2500,1401.09,266.0,1.0,0.4900000000000091,0.0019459888800635785,6.8249722001589825
563,1401.09,266.0,74.4,541.0,35.11,1,Apollo,1000,4.0,2500,1402.56,246.4,1.0,1.4700000000000273,0.005526315789473787,19.695789473684577
564,1402.56,246.4,72.5,571.0,37.35,1,Apollo,1000,4.0,2500,1403.0,236.5,1.0,0.44000000000005457,0.0017857142857145073,6.224285714286486
565,1403.0,236.5,72.2,330.0,33.89,1,Apollo,1000,4.0,2500,1404.54,228.2,1.0,1.5399999999999636,0.006511627906976591,22.43906976744133
566,1404.54,228.2,73.7,245.0,31.53,1,Apollo,1000,4.0,2500,1405.05,232.6,1.0,0.5099999999999909,0.002234881682734404,7.627204206835973
567,1405.05,232.6,74.5,461.0,34.11,1,Apollo,1000,4.0,2500,1406.54,248.3,1.0,1.490000000000009,0.0064058469475494805,21.974617368873737
568,1406.54,248.3,73.7,229.0,34.75,1,Apollo,1000,4.0,2500,1407.08,248.3,1.0,0.5399999999999636,0.0021747885622229704,7.59697140555728
569,1407.08,248.3,73.7,180.0,33.35,1,Apollo,1000,4.0,2500,1408.6,236.1,1.0,1.5199999999999818,0.006121627064035367,21.38406766008835
570,1408.6,236.1,70.9,245.0,34.45,1,Apollo,1000,4.0,2500,1409.14,233.7,1.0,0.540000000000191,0.002287166454892804,7.877916137232774
571,1409.14,233.7,71.6,210.0,33.11,1,Apollo,1000,4.0,2500,1410.5,236.5,1.0,1.3599999999999,0.005819426615318357,19.988566538295494
572,1410.5,236.5,71.1,162.0,34.72,1,Apollo,1000,4.0,2500,1411.03,226.2,1.0,0.5299999999999727,0.0022410147991542184,7.722536997885437
573,1411.03,226.2,70.5,173.0,37.34,1,Apollo,1000,4.0,2500,1412.53,222.2,1.0,1.5,0.006631299734748012,22.57824933687003
574,1412.53,222.2,71.1,220.0,38.94,1,Apollo,1000,4.0,2500,1413.06,227.0,1.0,0.5299999999999727,0.0023852385238522624,8.083096309630546
575,1413.06,227.0,74.1,231.0,35.74,1,Apollo,1000,4.0,2500,1414.62,545.3,1.0,1.5599999999999454,0.006872246696035002,23.420616740087286
576,1414.62,545.3,90.4,398.0,22.71,1,Apollo,1000,4.0,2500,1415.05,644.7,1.0,0.43000000000006366,0.0007885567577481454,3.691391894370618
577,1415.05,644.7,87.3,38.0,20.19,1,Apollo,1000,4.0,2500,1416.58,668.7,1.0,1.5299999999999727,0.0023731968357375097,12.052992089343665
578,1416.58,668.7,80.7,537.0,26.62,1,Apollo,1000,4.0,2500,1417.21,726.4,1.0,0.6300000000001091,0.0009421265141320609,4.875316285330589
579,1417.21,726.4,86.0,502.0,23.37,1,Apollo,1000,4.0,2500,1418.65,741.0,1.0,1.4400000000000546,0.001982378854625626,10.715947136564282
580,1418.65,741.0,81.0,416.0,23.93,1,Apollo,1000,4.0,2500,1419.07,739.9,1.0,0.4199999999998454,0.0005668016194329897,3.097004048581856
581,1419.07,739.9,81.9,223.0,23.86,1,Apollo,1000,4.0,2500,1420.51,724.2,1.0,1.4400000000000546,0.0019462089471550949,10.625522367887957
582,1420.51,724.2,75.9,418.0,29.84,1,Apollo,1000,4.0,2500,1421.14,690.9,1.0,0.6300000000001091,0.0008699254349628681,4.694813587407607
583,1421.14,690.9,77.5,606.0,32.83,1,Apollo,1000,4.0,2500,1422.57,738.7,1.0,1.4299999999998363,0.0020697640758428663,10.89441018960651
584,1422.57,738.7,74.1,468.0,30.6,1,Apollo,1000,4.0,2500,1423.38,743.2,1.0,0.8100000000001728,0.0010965209151213926,5.981302287804173
585,1423.38,743.2,79.9,569.0,27.98,1,Apollo,1000,4.0,2500,1424.85,740.2,1.0,1.4699999999998,0.001977933261571313,10.824833153927482
586,1424.85,740.2,73.7,335.0,31.45,1,Apollo,1000,4.0,2500,1425.02,743.4,1.0,0.17000000000007276,0.00022966765738999291,1.2541691434752733
587,1425.02,743.4,70.0,299.0,37.08,1,Apollo,1000,4.0,2500,1426.55,697.1,1.0,1.5299999999999727,0.0020581113801452417,11.265278450362995
588,1426.55,697.1,73.4,539.0,32.84,1,Apollo,1000,4.0,2500,1427.16,682.0,1.0,0.6100000000001273,0.0008750537942908153,4.6276344857275475
589,1427.16,682.0,71.6,316.0,34.85,1,Apollo,1000,4.0,2500,1428.68,697.7,1.0,1.5199999999999818,0.0022287390029325244,11.651847507331238
590,1428.68,697.7,73.0,306.0,33.16,1,Apollo,1000,4.0,2500,1429.27,712.8,1.0,0.5899999999999181,0.0008456356600256816,4.474089150063877
591,1429.27,712.8,69.9,375.0,37.42,1,Apollo,1000,4.0,2500,1430.62,719.0,1.0,1.349999999999909,0.0018939393939392663,10.1348484848478
592,1430.62,719.0,71.4,672.0,37.62,1,Apollo,1000,4.0,2500,1431.12,740.6,1.0,0.5,0.0006954102920723226,3.7385257301808066
593,1431.12,740.6,71.2,418.0,42.62,1,Apollo,1000,4.0,2500,1432.6,585.2,1.0,1.4800000000000182,0.0019983796921415314,10.9159492303539
594,1432.6,585.2,75.6,372.0,36.75,1,Apollo,1000,4.0,2500,1433.31,789.8,1.0,0.7100000000000364,0.0012132604237868015,5.873151059467149
595,1433.31,789.8,76.0,351.0,35.23,1,Apollo,1000,4.0,2500,1434.8,707.0,1.0,1.490000000000009,0.0018865535578627619,10.67638389465694
596,1434.8,707.0,71.9,449.0,36.7,1,Apollo,1000,4.0,2500,1435.16,758.7,1.0,0.36000000000012733,0.0005091937765206892,2.7129844413022326
597,1435.16,758.7,68.5,747.0,38.75,1,Apollo,1000,4.0,2500,1436.65,781.9,1.0,1.490000000000009,0.001963885593778844,10.869713984447147
598,1436.65,781.9,67.7,633.0,33.43,1,Apollo,1000,4.0,2500,1437.29,767.4,1.0,0.6399999999998727,0.000818518992198328,4.606297480495311
599,1437.29,767.4,68.7,440.0,36.2,1,Apollo,1000,4.0,2500,1438.76,724.7,1.0,1.4700000000000273,0.0019155590304926078,10.668897576231629
600,1438.76,724.7,71.3,306.0,37.92,1,Apollo,1000,4.0,2500,1439.11,779.9,1.0,0.34999999999990905,0.0004829584655718353,2.6073961639292245
601,1439.11,779.9,65.4,731.0,38.87,1,Apollo,1000,4.0,2500,1440.51,690.6,1.0,1.400000000000091,0.0017951019361457763,10.087754840364806
602,1440.51,690.6,67.6,606.0,34.62,1,Apollo,1000,4.0,2500,1441.01,804.6,1.0,0.5,0.0007240081088908196,3.8100202722270486
603,1441.01,804.6,74.7,254.0,29.07,1,Apollo,1000,4.0,2500,1442.62,762.1,1.0,1.6099999999999,0.002000994282873353,11.442485707182982
604,1442.62,762.1,70.6,446.0,31.56,1,Apollo,1000,4.0,2500,1443.2,663.4,1.0,0.5800000000001546,0.0007610549796616646,4.22263744915478
605,1443.2,663.4,72.4,283.0,40.76,1,Apollo,1000,4.0,2500,1444.59,642.2,1.0,1.3899999999998727,0.002095266807355853,10.798167018389123
606,1444.59,642.2,69.7,823.0,41.09,1,Apollo,1000,4.0,2500,1445.31,672.0,1.0,0.7200000000000273,0.001121146060417358,5.682865151043504
607,1445.31,672.0,69.1,617.0,36.16,1,Apollo,1000,4.0,2500,1446.63,667.9,1.0,1.3200000000001637,0.0019642857142859577,10.190714285715549
608,1446.63,667.9,68.9,563.0,37.74,1,Apollo,1000,4.0,2500,1447.08,668.8,1.0,0.4499999999998181,0.0006737535559212728,3.484383889802454
609,1447.08,668.8,69.4,251.0,31.62,1,Apollo,1000,4.0,2500,1448.89,767.6,1.0,1.8100000000001728,0.0027063397129189187,14.005849282297987
610,1448.89,767.6,69.4,369.0,37.01,1,Apollo,1000,4.0,2500,1449.15,762.4,1.0,0.2599999999999909,0.0003387180823345374,1.886795205836307
611,1449.15,762.4,76.3,588.0,29.99,1,Apollo,1000,4.0,2500,1450.75,702.7,1.0,1.599999999999909,0.002098635886673543,11.646589716683494
612,1450.75,702.7,70.8,376.0,32.05,1,Apollo,1000,4.0,2500,1451.15,679.5,1.0,0.40000000000009095,0.0005692329585884316,3.023082396471443
613,1451.15,679.5,71.8,405.0,32.48,1,Apollo,1000,4.0,2500,1452.88,830.5,1.0,1.7300000000000182,0.002545989698307606,13.284974245769089
614,1452.88,830.5,67.5,222.0,35.56,1,Apollo,1000,4.0,2500,1453.07,833.8,1.0,0.1899999999998272,0.00022877784467167632,1.3319446116784994
615,1453.07,833.8,65.5,586.0,35.89,1,Apollo,1000,4.0,2500,1454.71,701.5,1.0,1.6400000000001,0.001966898536819501,11.477246342049153
616,1454.71,701.5,72.2,249.0,35.07,1,Apollo,1000,4.0,2500,1455.05,695.2,1.0,0.33999999999991815,0.0004846756949392988,2.5716892373479197
617,1455.05,695.2,70.0,576.0,45.02,1,Apollo,1000,4.0,2500,1456.64,556.3,1.0,1.5900000000001455,0.0022871116225548697,12.077779056387756
618,1456.64,556.3,84.1,222.0,24.85,1,Apollo,1000,4.0,2500,1457.01,670.4,1.0,0.36999999999989086,0.000665108754269083,3.1427718856722713
619,1457.01,670.4,82.1,342.0,24.15,1,Apollo,1000,4.0,2500,1458.81,731.3,1.0,1.7999999999999545,0.002684964200477259,13.912410501192966
620,1458.81,731.3,69.1,744.0,34.48,1,Apollo,1000,4.0,2500,1459.05,703.7,1.0,0.2400000000000091,0.0003281826883632013,1.7804567209080395
621,1459.05,703.7,71.4,736.0,31.69,1,Apollo,1000,4.0,2500,1460.52,657.7,1.0,1.4700000000000273,0.002088958362938791,11.102395907347088
622,1460.52,657.7,72.6,288.0,30.43,1,Apollo,1000,4.0,2500,1461.13,687.4,1.0,0.6100000000001273,0.0009274745324618022,4.7586863311550145
623,1461.13,687.4,72.1,282.0,37.76,1,Apollo,1000,4.0,2500,1462.56,691.8,1.0,1.4299999999998363,0.002080302589467321,10.920756473667648
624,1462.56,691.8,66.4,322.0,37.25,1,Apollo,1000,4.0,2500,1463.23,646.3,1.0,0.6700000000000728,0.0009684880023129125,5.101220005782572
625,1463.23,646.3,70.5,592.0,38.23,1,Apollo,1000,4.0,2500,1463.54,720.0,1.0,0.30999999999994543,0.0004796534117282152,2.43913352932032
626,1463.54,720.0,77.1,260.0,30.73,1,Apollo,1000,4.0,2500,1465.26,683.9,1.0,1.7200000000000273,0.0023888888888889265,12.852222222222426
627,1465.26,683.9,84.0,242.0,31.79,1,Apollo,1000,4.0,2500,1466.62,664.4,1.0,1.3599999999999,0.0019885948238045036,10.411487059510858
628,1466.62,664.4,75.7,280.0,31.98,1,Apollo,1000,4.0,2500,1467.19,703.4,1.0,0.5700000000001637,0.000857916917519813,4.424792293800188
629,1467.19,703.4,75.0,281.0,33.88,1,Apollo,1000,4.0,2500,1468.7,745.0,1.0,1.509999999999991,0.00214671595109467,11.406789877736639
630,1468.7,745.0,75.1,302.0,34.54,1,Apollo,1000,4.0,2500,1469.03,655.9,1.0,0.32999999999992724,0.00044295302013413053,2.427382550335035
631,1469.03,655.9,76.4,496.0,36.78,1,Apollo,1000,4.0,2500,1470.71,655.0,1.0,1.6800000000000637,0.0025613660618997772,13.123415154749697
632,1470.71,655.0,74.8,693.0,35.49,1,Apollo,1000,4.0,2500,1471.04,668.2,1.0,0.32999999999992724,0.0005038167938930187,2.5795419847322556
633,1471.04,668.2,74.4,669.0,33.06,1,Apollo,1000,4.0,2500,1472.54,425.7,1.0,1.5,0.0022448368751870696,11.612092187967674
634,1472.54,425.7,68.1,587.0,41.35,1,Apollo,1000,4.0,2500,1473.06,327.0,1.0,0.5199999999999818,0.0012215175005872254,5.133793751467991
635,1473.06,327.0,69.0,343.0,40.63,1,Apollo,1000,4.0,2500,1474.57,239.9,1.0,1.509999999999991,0.004617737003058077,17.584342507645154
636,1474.57,239.9,79.3,161.0,28.25,1,Apollo,1000,4.0,2500,1475.06,306.0,1.0,0.4900000000000091,0.002042517715714919,7.066294289287334
637,1475.06,306.0,74.7,115.0,34.76,1,Apollo,1000,4.0,2500,1476.62,274.2,1.0,1.5599999999999454,0.005098039215686096,18.98509803921502
638,1476.62,274.2,70.9,576.0,38.67,1,Apollo,1000,4.0,2500,1477.05,271.0,1.0,0.43000000000006366,0.0015681983953321067,5.640495988330521
639,1477.05,271.0,70.6,495.0,36.39,1,Apollo,1000,4.0,2500,1478.55,268.9,1.0,1.5,0.005535055350553506,19.837638376383765
640,1478.55,268.9,75.1,211.0,34.79,1,Apollo,1000,4.0,2500,1479.05,290.1,1.0,0.5,0.0018594272963927112,6.648568240981778
641,1479.05,290.1,75.1,645.0,36.4,1,Apollo,1000,4.0,2500,1482.51,98.9,1.0,3.4600000000000364,0.011926921751120426,43.65730437780121
642,1482.51,98.9,87.4,163.0,21.65,1,Apollo,1000,4.0,2500,1483.01,110.4,1.0,0.5,0.005055611729019211,14.639029322548028
643,1483.01,110.4,81.1,97.0,26.34,1,Apollo,1000,4.0,2500,1484.53,142.2,1.0,1.5199999999999818,0.01376811594202882,40.500289855071976
644,1484.53,142.2,81.9,222.0,25.19,1,Apollo,1000,4.0,2500,1485.05,145.0,1.0,0.5199999999999818,0.0036568213783402382,11.222053445850523
645,1485.05,145.0,82.6,104.0,25.05,1,Apollo,1000,4.0,2500,1486.52,127.4,1.0,1.4700000000000273,0.010137931034482947,31.22482758620748
646,1486.52,127.4,76.8,491.0,32.57,1,Apollo,1000,4.0,2500,1487.04,117.2,1.0,0.5199999999999818,0.004081632653061082,12.284081632652631
647,1487.04,117.2,92.5,173.0,14.89,1,Apollo,1000,4.0,2500,1488.53,155.5,1.0,1.490000000000009,0.012713310580204857,37.74327645051218
648,1488.53,155.5,77.3,97.0,32.58,1,Apollo,1000,4.0,2500,1489.07,146.6,1.0,0.5399999999999636,0.003472668810289155,10.841672025722742
649,1489.07,146.6,80.4,529.0,30.2,1,Apollo,1000,4.0,2500,1490.53,198.2,1.0,1.4600000000000364,0.0099590723055937,30.737680763984397
650,1490.53,198.2,99.0,176.0,10.1,1,Apollo,1000,4.0,2500,1491.05,198.9,1.0,0.5199999999999818,0.00262361251261343,8.639031281533502
651,1491.05,198.9,97.7,231.0,8.05,1,Apollo,1000,4.0,2500,1492.53,198.5,1.0,1.4800000000000182,0.007440925087984002,24.522312719960077
652,1492.53,198.5,99.0,332.0,10.97,1,Apollo,1000,4.0,2500,1493.0,200.8,1.0,0.4700000000000273,0.0023677581863981224,7.799395465995415
653,1493.0,200.8,97.8,166.0,9.99,1,Apollo,1000,4.0,2500,1494.53,245.8,1.0,1.5299999999999727,0.007619521912350461,25.168804780876044
654,1494.53,245.8,95.5,127.0,12.06,1,Apollo,1000,4.0,2500,1495.08,243.9,1.0,0.5499999999999545,0.0022375915378354534,7.793978844588452
655,1495.08,243.9,92.6,35.0,15.14,1,Apollo,1000,4.0,2500,1497.05,251.1,1.0,1.9700000000000273,0.00807708077080782,28.07270192701966
656,1497.05,251.1,93.9,20.0,12.59,1,Apollo,1000,4.0,2500,1498.64,252.7,1.0,1.5900000000001455,0.0063321385902036864,22.1903464755098
657,1498.64,252.7,87.2,175.0,19.68,1,Apollo,1000,4.0,2500,1499.12,248.9,1.0,0.4799999999997908,0.0018994855559944235,6.668713889985222
658,1499.12,248.9,90.5,156.0,18.11,1,Apollo,1000,4.0,2500,1500.62,226.5,1.0,1.5,0.006026516673362796,21.066291683406988
659,1500.62,226.5,89.9,487.0,19.6,1,Apollo,1000,4.0,2500,1501.04,231.4,1.0,0.42000000000007276,0.0018543046357619105,6.315761589405067
660,1501.04,231.4,93.4,421.0,15.11,1,Apollo,1000,4.0,2500,1502.56,249.5,1.0,1.5199999999999818,0.006568712186689637,22.501780466724018
661,1502.56,249.5,94.3,343.0,14.75,1,Apollo,1000,4.0,2500,1503.05,247.3,1.0,0.4900000000000091,0.0019639278557114595,6.869819639278685
662,1503.05,247.3,95.0,14.0,11.54,1,Apollo,1000,4.0,2500,1504.5,246.7,1.0,1.4500000000000455,0.005863323898099657,20.458309745249323
663,1504.5,246.7,95.2,381.0,12.01,1,Apollo,1000,4.0,2500,1505.05,251.5,1.0,0.5499999999999545,0.002229428455613922,7.7735711390346225
664,1505.05,251.5,92.0,109.0,14.51,1,Apollo,1000,4.0,2500,1507.08,247.9,1.0,2.0299999999999727,0.008071570576540647,28.298926441351508
665,1507.08,247.9,98.1,53.0,11.92,1,Apollo,1000,4.0,2500,1508.5,260.9,1.0,1.4200000000000728,0.005728116175877663,20.00029043969445
666,1508.5,260.9,99.0,122.0,11.07,1,Apollo,1000,4.0,2500,1510.58,588.9,1.0,2.0799999999999272,0.0079724032196241,28.25100804905996
667,1510.58,588.9,76.8,293.0,29.7,1,Apollo,1000,4.0,2500,1511.07,669.5,1.0,0.4900000000000091,0.0008320597724571388,4.040149431142884
668,1511.07,669.5,79.1,450.0,28.05,1,Apollo,1000,4.0,2500,1512.69,798.3,1.0,1.6200000000001182,0.0024197162061241496,12.529290515310848
669,1512.69,798.3,73.8,413.0,32.04,1,Apollo,1000,4.0,2500,1513.26,725.8,1.0,0.5699999999999363,0.0007140172867342307,4.065043216835322
670,1513.26,725.8,78.7,541.0,27.28,1,Apollo,1000,4.0,2500,1514.75,742.2,1.0,1.490000000000009,0.002052907136952341,11.092267842380888
671,1514.75,742.2,77.6,789.0,31.97,1,Apollo,1000,4.0,2500,1516.51,767.7,1.0,1.759999999999991,0.0023713284828886967,12.968321207221706
672,1516.51,767.7,69.0,283.0,38.32,1,Apollo,1000,4.0,2500,1517.27,674.1,1.0,0.7599999999999909,0.000989970040380345,5.514925100950826
673,1517.27,674.1,72.2,331.0,34.47,1,Apollo,1000,4.0,2500,1518.7,782.2,1.0,1.4300000000000637,0.0021213469811601597,11.023367452900654
674,1518.7,782.2,75.6,753.0,37.14,1,Apollo,1000,4.0,2500,1519.13,756.3,1.0,0.43000000000006366,0.0005497315264639014,3.094328816160008
675,1519.13,756.3,70.9,729.0,36.02,1,Apollo,1000,4.0,2500,1520.52,710.2,1.0,1.3899999999998727,0.001837895015205438,10.154737538013086
676,1520.52,710.2,74.5,595.0,28.04,1,Apollo,1000,4.0,2500,1520.785,769.8,1.0,0.26500000000010004,0.00037313432835834985,1.9928358208962749
677,1520.785,769.8,70.1,588.0,33.74,1,Apollo,1000,4.0,2500,1522.66,730.8,1.0,1.875,0.002435697583787997,13.589243959469993
678,1522.66,730.8,75.6,651.0,36.69,1,Apollo,1000,4.0,2500,1523.29,749.8,1.0,0.6299999999998818,0.0008620689655170797,4.675172413792226
679,1523.29,749.8,71.1,726.0,38.24,1,Apollo,1000,4.0,2500,1524.26,660.8,1.0,0.9700000000000273,0.0012936783142171611,7.1141957855430125
680,1524.26,660.8,72.1,420.0,39.9,1,Apollo,1000,4.0,2500,1525.03,690.3,1.0,0.7699999999999818,0.0011652542372881081,5.993135593220197
681,1525.03,690.3,71.1,637.0,33.09,1,Apollo,1000,4.0,2500,1526.91,652.1,1.0,1.8800000000001091,0.002723453570911356,14.328633927278826
682,1526.91,652.1,71.0,386.0,32.33,1,Apollo,1000,4.0,2500,1527.02,681.9,1.0,0.10999999999989996,0.00016868578438874397,0.8617144609714598
683,1527.02,681.9,67.4,821.0,43.64,1,Apollo,1000,4.0,2500,1528.87,646.8,1.0,1.849999999999909,0.002713007772400512,14.182519431000916
684,1528.87,646.8,71.4,444.0,40.1,1,Apollo,1000,4.0,2500,1529.17,606.6,1.0,0.3000000000001819,0.0004638218923936022,2.3595547309847333
685,1529.17,606.6,74.3,709.0,41.49,1,Apollo,1000,4.0,2500,1530.72,666.0,1.0,1.5499999999999545,0.00255522584899432,12.588064622485618
686,1530.72,666.0,76.6,778.0,35.29,1,Apollo,1000,4.0,2500,1531.19,784.0,1.0,0.4700000000000273,0.0007057057057057467,3.644264264264476
687,1531.19,784.0,81.6,740.0,27.8,1,Apollo,1000,4.0,2500,1532.56,1075.0,1.0,1.3699999999998909,0.0017474489795916977,9.848622448978809
688,1532.56,1075.0,73.5,487.0,39.46,1,Apollo,1000,4.0,2500,1533.1,990.9,1.0,0.5399999999999636,0.000502325581395315,3.4158139534881418
689,1533.1,990.9,76.7,248.0,26.42,1,Apollo,1000,4.0,2500,1534.33,824.9,1.0,1.2300000000000182,0.0012412957917045295,8.023239479261397
690,1534.33,824.9,76.1,735.0,36.29,1,Apollo,1000,4.0,2500,1535.08,948.0,1.0,0.75,0.0009092011152867015,5.273002788216754
691,1535.08,948.0,69.7,594.0,37.87,1,Apollo,1000,4.0,2500,1536.71,872.1,1.0,1.6300000000001091,0.0017194092827005371,10.81852320675178
692,1536.71,872.1,66.9,303.0,36.3,1,Apollo,1000,4.0,2500,1537.41,883.4,1.0,0.7000000000000455,0.0008026602453847558,4.806650613462072
693,1537.41,883.4,75.3,728.0,35.87,1,Apollo,1000,4.0,2500,1538.59,886.1,1.0,1.1799999999998363,0.001335748245415255,8.059370613537483
694,1538.59,886.1,79.1,615.0,34.73,1,Apollo,1000,4.0,2500,1539.36,851.3,1.0,0.7699999999999818,0.0008689764134973275,5.252441033743246
695,1539.36,851.3,66.4,357.0,37.7,1,Apollo,1000,4.0,2500,1540.85,805.7,1.0,1.490000000000009,0.0017502643016563011,10.33566075414079
696,1540.85,805.7,76.0,480.0,37.41,1,Apollo,1000,4.0,2500,1541.04,772.7,1.0,0.19000000000005457,0.00023581978403879178,1.3495494600971978
697,1541.04,772.7,68.7,408.0,39.28,1,Apollo,1000,4.0,2500,1542.62,706.9,1.0,1.5799999999999272,0.0020447780509899407,11.43194512747456
698,1542.62,706.9,68.6,725.0,33.65,1,Apollo,1000,4.0,2500,1543.28,768.9,1.0,0.6600000000000819,0.0009336539821758125,4.974134955439858
699,1543.28,768.9,67.4,391.0,35.86,1,Apollo,1000,4.0,2500,1544.61,687.3,1.0,1.3299999999999272,0.0017297437898295322,9.64435947457354
700,1544.61,687.3,74.7,445.0,35.29,1,Apollo,1000,4.0,2500,1545.36,691.7,1.0,0.75,0.0010912265386294195,5.728066346573549
701,1545.36,691.7,71.8,373.0,34.86,1,Apollo,1000,4.0,2500,1546.63,665.2,1.0,1.2700000000002092,0.0018360560936825344,9.670140234207173
702,1546.63,665.2,68.4,337.0,38.6,1,Apollo,1000,4.0,2500,1547.08,552.3,1.0,0.4499999999998181,0.0006764882742029736,3.4912206855067067
703,1547.08,552.3,69.7,378.0,31.45,1,Apollo,1000,4.0,2500,1548.7,781.7,1.0,1.6200000000001182,0.002933188484519497,13.812971211299216
704,1548.7,781.7,72.9,236.0,23.69,1,Apollo,1000,4.0,2500,1549.08,964.2,1.0,0.37999999999988177,0.0004861199948827962,2.735299987206518
705,1549.08,964.2,65.5,567.0,37.91,1,Apollo,1000,4.0,2500,1550.73,813.1,1.0,1.650000000000091,0.0017112632233977295,10.878158058494687
706,1550.73,813.1,68.9,433.0,32.94,1,Apollo,1000,4.0,2500,1551.33,806.1,1.0,0.599999999999909,0.0007379166154223454,4.2447915385555
707,1551.33,806.1,68.1,527.0,36.07,1,Apollo,1000,4.0,2500,1552.67,720.1,1.0,1.3400000000001455,0.0016623247736014706,9.515811934004258
708,1552.67,720.1,69.9,677.0,36.24,1,Apollo,1000,4.0,2500,1553.19,745.9,1.0,0.5199999999999818,0.0007221219275100428,3.885304818775034
709,1553.19,745.9,70.2,361.0,38.12,1,Apollo,1000,4.0,2500,1554.55,705.5,1.0,1.3599999999999,0.0018233007105508783,9.998251776376796
710,1554.55,705.5,70.6,664.0,32.42,1,Apollo,1000,4.0,2500,1555.19,753.8,1.0,0.6400000000001,0.0009071580439406095,4.827895109851924
711,1555.19,753.8,72.6,559.0,34.78,1,Apollo,1000,4.0,2500,1556.64,774.8,1.0,1.4500000000000455,0.0019235871583975132,10.608967895993965
712,1556.64,774.8,67.4,400.0,38.13,1,Apollo,1000,4.0,2500,1557.17,691.5,1.0,0.5299999999999727,0.0006840474961279979,3.8301187403198855
713,1557.17,691.5,67.4,575.0,37.48,1,Apollo,1000,4.0,2500,1560.59,309.3,1.0,3.4199999999998454,0.004945770065075699,26.044425162688626
714,1560.59,309.3,85.3,162.0,19.79,1,Apollo,1000,4.0,2500,1561.4,723.9,1.0,0.8100000000001728,0.0026188166828327603,9.787041707082592
715,1561.4,723.9,76.0,328.0,31.61,1,Apollo,1000,4.0,2500,1562.7,670.9,1.0,1.2999999999999545,0.0017958281530597523,9.6895703826492
716,1562.7,670.9,76.8,328.0,32.24,1,Apollo,1000,4.0,2500,1563.07,674.1,1.0,0.36999999999989086,0.0005514979877774494,2.858744969443187
717,1563.07,674.1,75.0,369.0,33.38,1,Apollo,1000,4.0,2500,1564.59,677.7,1.0,1.5199999999999818,0.0022548583296246576,11.717145824061571
718,1564.59,677.7,74.8,386.0,33.77,1,Apollo,1000,4.0,2500,1565.13,661.7,1.0,0.540000000000191,0.0007968127490042659,4.1520318725114285
719,1565.13,661.7,75.1,397.0,33.81,1,Apollo,1000,4.0,2500,1566.68,701.8,1.0,1.5499999999999545,0.0023424512619010947,12.056128154752555
720,1566.68,701.8,75.2,887.0,34.31,1,Apollo,1000,4.0,2500,1567.06,662.4,1.0,0.37999999999988177,0.0005414648047875203,2.873662011968328
721,1567.06,662.4,74.2,743.0,34.67,1,Apollo,1000,4.0,2500,1568.66,711.1,1.0,1.6000000000001364,0.0024154589371982735,12.43864734299623
722,1568.66,711.1,73.2,582.0,35.92,1,Apollo,1000,4.0,2500,1569.25,749.1,1.0,0.5899999999999181,0.000829700464069636,4.434251160173762
723,1569.25,749.1,74.7,710.0,34.55,1,Apollo,1000,4.0,2500,1570.85,696.1,1.0,1.599999999999909,0.002135896409024041,11.73974102255974
724,1570.85,696.1,71.9,386.0,32.54,1,Apollo,1000,4.0,2500,1571.15,620.3,1.0,0.3000000000001819,0.0004309725614138513,2.277431403535356
725,1571.15,620.3,74.3,418.0,30.13,1,Apollo,1000,4.0,2500,1572.58,684.0,1.0,1.4299999999998363,0.002305336127679891,11.483340319199073
726,1572.58,684.0,73.5,442.0,35.76,1,Apollo,1000,4.0,2500,1573.17,686.1,1.0,0.5900000000001455,0.0008625730994154175,4.516432748539126
727,1573.17,686.1,73.7,786.0,31.55,1,Apollo,1000,4.0,2500,1575.0,120.2,1.0,1.8299999999999272,0.0026672496720593604,13.988124180148109
728,1575.0,120.2,106.4,287.0,2.17,1,Apollo,1000,4.0,2500,1576.52,98.9,1.0,1.5199999999999818,0.012645590682196187,37.69397670549039
729,1576.52,98.9,106.3,286.0,3.11,1,Apollo,1000,4.0,2500,1578.51,148.7,1.0,1.990000000000009,0.02012133468149655,58.263336703741416
730,1578.51,148.7,104.0,76.0,5.08,1,Apollo,1000,4.0,2500,1580.52,158.8,1.0,2.009999999999991,0.01351714862138528,41.832871553463164
731,1580.52,158.8,101.5,3.0,5.24,1,Apollo,1000,4.0,2500,1581.02,183.2,1.0,0.5,0.003148614609571788,9.871536523929471
732,1581.02,183.2,97.5,82.0,9.89,1,Apollo,1000,4.0,2500,1582.52,198.9,1.0,1.5,0.008187772925764192,26.46943231441048
733,1582.52,198.9,98.1,147.0,8.32,1,Apollo,1000,4.0,2500,1583.02,198.9,1.0,0.5,0.0025138260432378077,8.284565108094519
734,1583.02,198.9,97.9,31.0,10.18,1,Apollo,1000,4.0,2500,1584.53,201.6,1.0,1.509999999999991,0.007591754650578134,25.0193866264453
735,1584.53,201.6,98.2,60.0,12.65,1,Apollo,1000,4.0,2500,1585.02,197.4,1.0,0.4900000000000091,0.0024305555555556007,8.03638888888904
736,1585.02,197.4,97.4,88.0,13.03,1,Apollo,1000,4.0,2500,1586.57,197.8,1.0,1.5499999999999545,0.00785207700101294,25.83019250253217
737,1586.57,197.8,97.6,79.0,12.25,1,Apollo,1000,4.0,2500,1587.03,198.4,1.0,0.4600000000000364,0.002325581395349021,7.653953488372698
738,1587.03,198.4,96.7,234.0,10.88,1,Apollo,1000,4.0,2500,1588.58,198.0,1.0,1.5499999999999545,0.007812499999999771,25.731249999999246
739,1588.58,198.0,96.4,144.0,10.33,1,Apollo,1000,4.0,2500,1589.03,201.0,1.0,0.4500000000000455,0.0022727272727275025,7.481818181818938
740,1589.03,201.0,93.4,221.0,13.75,1,Apollo,1000,4.0,2500,1591.04,202.9,1.0,2.009999999999991,0.009999999999999955,33.03999999999985
741,1591.04,202.9,102.2,185.0,5.5,1,Apollo,1000,4.0,2500,1592.53,241.3,1.0,1.490000000000009,0.0073435189748645106,24.31879743716131
742,1592.53,241.3,100.4,363.0,9.51,1,Apollo,1000,4.0,2500,1593.07,239.2,1.0,0.5399999999999636,0.0022378781599666953,7.754695399916593
743,1593.07,239.2,97.9,15.0,8.74,1,Apollo,1000,4.0,2500,1594.53,237.3,1.0,1.4600000000000364,0.006103678929766039,21.099197324415243
744,1594.53,237.3,97.7,40.0,8.96,1,Apollo,1000,4.0,2500,1596.59,239.9,1.0,2.0599999999999454,0.008680994521702255,29.94248630425542
745,1596.59,239.9,95.7,224.0,9.11,1,Apollo,1000,4.0,2500,1597.0,237.7,1.0,0.41000000000008185,0.0017090454355985069,5.912613588996595
746,1597.0,237.7,96.3,315.0,12.44,1,Apollo,1000,4.0,2500,1598.51,640.3,1.0,1.509999999999991,0.006352545225073583,21.921363062683923
747,1598.51,640.3,80.6,389.0,26.08,1,Apollo,1000,4.0,2500,1599.12,520.4,1.0,0.6099999999999,0.0009526784319848508,4.821696079961727
748,1599.12,520.4,84.2,654.0,22.72,1,Apollo,1000,4.0,2500,1600.68,638.0,1.0,1.5600000000001728,0.0029976940814761197,13.73423520369099
749,1600.68,638.0,77.1,564.0,29.1,1,Apollo,1000,4.0,2500,1601.36,786.4,1.0,0.6799999999998363,0.001065830721002878,5.38457680250654
750,1601.36,786.4,77.3,435.0,29.77,1,Apollo,1000,4.0,2500,1602.77,712.4,1.0,1.4100000000000819,0.0017929806714141426,10.122451678535683
751,1602.77,712.4,68.9,833.0,33.83,1,Apollo,1000,4.0,2500,1603.1,670.6,1.0,0.32999999999992724,0.00046322290847828083,2.4780572711954107
752,1603.1,670.6,76.6,437.0,30.74,1,Apollo,1000,4.0,2500,1604.51,858.3,1.0,1.4100000000000819,0.002102594691321327,10.896486728303646
753,1604.51,858.3,72.5,302.0,36.9,1,Apollo,1000,4.0,2500,1605.15,659.1,1.0,0.6400000000001,0.00074566002563218,4.42415006408085
754,1605.15,659.1,81.3,830.0,33.87,1,Apollo,1000,4.0,2500,1606.63,702.2,1.0,1.4800000000000182,0.002245486269154936,11.533715672887412
755,1606.63,702.2,71.8,681.0,33.45,1,Apollo,1000,4.0,2500,1607.41,669.6,1.0,0.7799999999999727,0.001110794645400132,5.896986613500221
756,1607.41,669.6,72.6,514.0,36.3,1,Apollo,1000,4.0,2500,1608.67,704.4,1.0,1.259999999999991,0.0018817204301075131,9.744301075268746
757,1608.67,704.4,76.3,774.0,40.71,1,Apollo,1000,4.0,2500,1609.06,655.6,1.0,0.38999999999987267,0.0005536626916522895,2.9441567291302144
758,1609.06,655.6,70.7,857.0,39.03,1,Apollo,1000,4.0,2500,1610.75,629.2,1.0,1.6900000000000546,0.0025777913361806812,13.20447834045192
759,1610.75,629.2,73.6,478.0,34.12,1,Apollo,1000,4.0,2500,1611.18,675.7,1.0,0.43000000000006366,0.0006834075015894208,3.4285187539738065
760,1611.18,675.7,68.9,695.0,39.62,1,Apollo,1000,4.0,2500,1612.86,585.9,1.0,1.6799999999998363,0.0024863104928220157,12.935776232054383
761,1612.86,585.9,75.7,392.0,38.77,1,Apollo,1000,4.0,2500,1613.41,594.2,1.0,0.5500000000001819,0.0009387267451786686,4.546816862947399
762,1613.41,594.2,73.7,538.0,32.92,1,Apollo,1000,4.0,2500,1614.84,671.2,1.0,1.4299999999998363,0.0024065971053514575,11.736492763377989
763,1614.84,671.2,73.0,825.0,39.87,1,Apollo,1000,4.0,2500,1615.24,645.8,1.0,0.40000000000009095,0.0005959475566151533,3.089868891538247
764,1615.24,645.8,69.0,437.0,37.58,1,Apollo,1000,4.0,2500,1616.55,616.5,1.0,1.3099999999999454,0.002028491793124722,10.311229482811587
765,1616.55,616.5,67.8,708.0,42.55,1,Apollo,1000,4.0,2500,1617.06,591.1,1.0,0.5099999999999909,0.0008272506082724914,4.108126520681192
766,1617.06,591.1,72.4,644.0,36.76,1,Apollo,1000,4.0,2500,1618.86,663.3,1.0,1.7999999999999545,0.0030451700219928175,14.81292505498186
767,1618.86,663.3,72.0,856.0,34.03,1,Apollo,1000,4.0,2500,1619.11,679.2,1.0,0.25,0.00037690336197798886,1.942258404944972
768,1619.11,679.2,72.0,697.0,30.41,1,Apollo,1000,4.0,2500,1620.25,698.8,1.0,1.1400000000001,0.0016784452296821262,8.756113074205714
769,1620.25,698.8,64.9,486.0,40.14,1,Apollo,1000,4.0,2500,1620.9,488.9,1.0,0.650000000000091,0.0009301659988553106,4.92541499713864
770,1620.9,488.9,71.7,1013.0,34.89,1,Apollo,1000,4.0,2500,1622.71,511.8,1.0,1.8099999999999454,0.00370218858662292,16.49547146655708
771,1622.71,511.8,72.5,767.0,31.62,1,Apollo,1000,4.0,2500,1623.2,538.3,1.0,0.4900000000000091,0.0009574052364204945,4.353513091051273
772,1623.2,538.3,69.3,771.0,38.96,1,Apollo,1000,4.0,2500,1624.8,701.1,1.0,1.599999999999909,0.0029723202675086555,13.830800668771275
773,1624.8,701.1,68.2,593.0,36.06,1,Apollo,1000,4.0,2500,1625.02,692.7,1.0,0.22000000000002728,0.0003137926116103655,1.6644815290260229
774,1625.02,692.7,68.2,681.0,36.4,1,Apollo,1000,4.0,2500,1626.25,701.2,1.0,1.2300000000000182,0.0017756604590732181,9.359151147683118
775,1626.25,701.2,72.2,897.0,31.9,1,Apollo,1000,4.0,2500,1627.17,679.3,1.0,0.9200000000000728,0.0013120365088420888,6.9600912721055135
776,1627.17,679.3,76.0,465.0,32.43,1,Apollo,1000,4.0,2500,1628.56,702.1,1.0,1.3899999999998727,0.0020462240541732264,10.675560135432557
777,1628.56,702.1,70.6,869.0,37.08,1,Apollo,1000,4.0,2500,1629.12,699.5,1.0,0.5599999999999454,0.0007976071784645284,4.234017946161103
778,1629.12,699.5,73.7,680.0,37.73,1,Apollo,1000,4.0,2500,1630.69,661.4,1.0,1.5700000000001637,0.0022444603288065243,11.891150822016964
779,1630.69,661.4,73.0,733.0,34.1,1,Apollo,1000,4.0,2500,1631.24,704.2,1.0,0.5499999999999545,0.0008315693982460759,4.2789234956150075
780,1631.24,704.2,70.4,850.0,36.18,1,Apollo,1000,4.0,2500,1632.85,659.5,1.0,1.6099999999999,0.0022862823061628795,12.155705765406799
781,1632.85,659.5,71.7,808.0,36.2,1,Apollo,1000,4.0,2500,1633.05,623.8,1.0,0.20000000000004547,0.0003032600454890758,1.5581501137228715
782,1633.05,623.8,71.7,517.0,31.66,1,Apollo,1000,4.0,2500,1634.56,750.9,1.0,1.509999999999991,0.0024206476434754584,12.09161910868861
783,1634.56,750.9,72.0,605.0,38.84,1,Apollo,1000,4.0,2500,1635.13,723.8,1.0,0.5700000000001637,0.0007590890930885122,4.177722732721936
784,1635.13,723.8,74.4,590.0,33.43,1,Apollo,1000,4.0,2500,1636.58,745.7,1.0,1.449999999999818,0.002003315833102816,10.808289582756313
785,1636.58,745.7,70.0,420.0,33.54,1,Apollo,1000,4.0,2500,1637.11,740.0,1.0,0.5299999999999727,0.0007107415850878003,3.8968539627193914
786,1637.11,740.0,68.7,866.0,36.77,1,Apollo,1000,4.0,2500,1638.14,723.5,1.0,1.0300000000002,0.0013918918918921623,7.599729729731206
787,1638.14,723.5,74.6,669.0,31.09,1,Apollo,1000,4.0,2500,1638.76,735.4,1.0,0.6199999999998909,0.0008569454042845762,4.622363510711004
788,1638.76,735.4,68.3,803.0,36.56,1,Apollo,1000,4.0,2500,1640.51,703.9,1.0,1.75,0.0023796573293445745,12.949143323361437
789,1640.51,703.9,68.9,845.0,35.05,1,Apollo,1000,4.0,2500,1641.05,685.1,1.0,0.5399999999999636,0.0007671544253444575,4.077886063360998
790,1641.05,685.1,70.2,784.0,37.97,1,Apollo,1000,4.0,2500,1642.6,680.2,1.0,1.5499999999999545,0.002262443438913961,11.85610859728472
791,1642.6,680.2,69.6,845.0,32.05,1,Apollo,1000,4.0,2500,1644.54,685.8,1.0,1.9400000000000546,0.002852102322846302,14.890255807115974
792,1644.54,685.8,73.7,659.0,38.76,1,Apollo,1000,4.0,2500,1645.37,683.5,1.0,0.8299999999999272,0.0012102653834936239,6.345663458733769
793,1645.37,683.5,70.4,476.0,32.23,1,Apollo,1000,4.0,2500,1646.57,621.2,1.0,1.2000000000000455,0.0017556693489393495,9.189173372348556
794,1646.57,621.2,68.0,476.0,37.76,1,Apollo,1000,4.0,2500,1647.31,643.0,1.0,0.7400000000000091,0.0011912427559562283,5.938106889890607
795,1647.31,643.0,73.8,464.0,39.69,1,Apollo,1000,4.0,2500,1648.82,704.1,1.0,1.509999999999991,0.002348367029548975,11.9109175738724
796,1648.82,704.1,66.3,470.0,37.19,1,Apollo,1000,4.0,2500,1649.35,651.3,1.0,0.5299999999999727,0.0007527339866495848,4.0018349666238535
797,1649.35,651.3,71.1,810.0,40.13,1,Apollo,1000,4.0,2500,1650.55,745.8,1.0,1.2000000000000455,0.0018424689083372417,9.406172270843285
798,1650.55,745.8,69.0,861.0,37.71,1,Apollo,1000,4.0,2500,1651.0,717.7,1.0,0.4500000000000455,0.0006033789219630538,3.3084473049078165
799,1651.0,717.7,71.7,443.0,29.76,1,Apollo,1000,4.0,2500,1652.54,679.5,1.0,1.5399999999999636,0.002145743346802234,11.52435836700544
800,1652.54,679.5,68.6,836.0,40.24,1,Apollo,1000,4.0,2500,1653.07,684.4,1.0,0.5299999999999727,0.0007799852832965015,4.069963208241145
801,1653.07,684.4,69.7,826.0,40.1,1,Apollo,1000,4.0,2500,1655.12,432.3,1.0,2.0499999999999545,0.0029953243717123824,15.688310929280775
802,1655.12,432.3,97.0,123.0,15.7,1,Apollo,1000,4.0,2500,1656.85,573.9,1.0,1.7300000000000182,0.004001850566736105,16.924626416840333
803,1656.85,573.9,83.5,336.0,27.38,1,Apollo,1000,4.0,2500,1657.07,616.3,1.0,0.22000000000002728,0.00038334204565260025,1.83835511413161
804,1657.07,616.3,79.8,731.0,32.24,1,Apollo,1000,4.0,2500,1658.52,658.6,1.0,1.4500000000000455,0.0023527502839526945,11.681875709881918
805,1658.52,658.6,76.0,778.0,32.61,1,Apollo,1000,4.0,2500,1659.09,654.9,1.0,0.5699999999999363,0.0008654722137867238,4.443680534466555
806,1659.09,654.9,77.0,503.0,30.55,1,Apollo,1000,4.0,2500,1660.69,688.3,1.0,1.6000000000001364,0.0024431210871890922,12.507802717973277
807,1660.69,688.3,79.6,455.0,33.19,1,Apollo,1000,4.0,2500,1661.0,683.9,1.0,0.30999999999994543,0.0004503850065377676,2.365962516344201
808,1661.0,683.9,79.0,660.0,36.46,1,Apollo,1000,4.0,2500,1662.59,692.4,1.0,1.5899999999999181,0.0023249013013597283,12.172253253398992
809,1662.59,692.4,70.3,860.0,41.61,1,Apollo,1000,4.0,2500,1663.18,670.0,1.0,0.5900000000001455,0.0008521086077414002,4.490271519354083
810,1663.18,670.0,78.3,414.0,32.23,1,Apollo,1000,4.0,2500,1664.79,735.5,1.0,1.6099999999999,0.0024029850746267165,12.447462686566391
811,1664.79,735.5,75.7,490.0,35.06,1,Apollo,1000,4.0,2500,1665.12,732.0,1.0,0.32999999999992724,0.0004486743711759718,2.4416859279396386
812,1665.12,732.0,76.4,668.0,37.06,1,Apollo,1000,4.0,2500,1666.87,666.2,1.0,1.75,0.0023907103825136613,12.976775956284154
813,1666.87,666.2,75.9,503.0,35.81,1,Apollo,1000,4.0,2500,1667.01,648.4,1.0,0.14000000000010004,0.0002101471029722306,1.0853677574309768
814,1667.01,648.4,71.2,832.0,38.93,1,Apollo,1000,4.0,2500,1668.71,624.8,1.0,1.7000000000000455,0.0026218383713757644,13.354595928439593
815,1668.71,624.8,79.3,498.0,31.65,1,Apollo,1000,4.0,2500,1669.13,730.7,1.0,0.42000000000007276,0.0006722151088349436,3.36053777208765
816,1669.13,730.7,72.8,509.0,36.96,1,Apollo,1000,4.0,2500,1670.53,714.9,1.0,1.3999999999998636,0.0019159709867248712,10.389927466811631
817,1670.53,714.9,79.4,683.0,29.87,1,Apollo,1000,4.0,2500,1671.18,775.3,1.0,0.650000000000091,0.0009092180724578137,4.873045181144898
818,1671.18,775.3,75.5,493.0,32.95,1,Apollo,1000,4.0,2500,1672.72,823.7,1.0,1.5399999999999636,0.001986327873081341,11.125819682703208
819,1672.72,823.7,73.8,563.0,35.66,1,Apollo,1000,4.0,2500,1673.31,684.8,1.0,0.5899999999999181,0.0007162801991015152,4.15070049775346
820,1673.31,684.8,73.3,451.0,32.88,1,Apollo,1000,4.0,2500,1674.55,765.9,1.0,1.240000000000009,0.0018107476635514153,9.486869158878575
821,1674.55,765.9,70.8,397.0,42.34,1,Apollo,1000,4.0,2500,1675.21,773.0,1.0,0.6600000000000819,0.000861731296514012,4.794328241285358
822,1675.21,773.0,74.8,408.0,33.85,1,Apollo,1000,4.0,2500,1676.56,704.7,1.0,1.349999999999909,0.0017464424320826767,9.766106080206328
823,1676.56,704.7,70.2,452.0,37.13,1,Apollo,1000,4.0,2500,1677.18,679.4,1.0,0.6200000000001182,0.0008798070100753771,4.679517525188915
824,1677.18,679.4,72.9,418.0,37.43,1,Apollo,1000,4.0,2500,1678.68,711.3,1.0,1.5,0.002207830438622314,11.519576096555785
825,1678.68,711.3,75.7,622.0,31.23,1,Apollo,1000,4.0,2500,1679.39,742.2,1.0,0.7100000000000364,0.000998172360466802,5.33543090116715
826,1679.39,742.2,77.7,407.0,36.59,1,Apollo,1000,4.0,2500,1680.69,809.4,1.0,1.2999999999999545,0.0017515494475881898,9.578873618970292
827,1680.69,809.4,73.3,540.0,35.8,1,Apollo,1000,4.0,2500,1681.09,726.7,1.0,0.3999999999998636,0.0004941932295525866,2.835483073880921
828,1681.09,726.7,77.5,547.0,29.93,1,Apollo,1000,4.0,2500,1682.69,686.0,1.0,1.6000000000001364,0.002201733865419205,11.904334663548557
829,1682.69,686.0,76.4,516.0,33.87,1,Apollo,1000,4.0,2500,1683.35,750.6,1.0,0.6599999999998545,0.0009620991253642194,5.045247813409967
830,1683.35,750.6,79.9,576.0,26.0,1,Apollo,1000,4.0,2500,1684.95,835.0,1.0,1.6000000000001364,0.002131628030908788,11.729070077272516
831,1684.95,835.0,74.4,778.0,37.84,1,Apollo,1000,4.0,2500,1685.15,891.2,1.0,0.20000000000004547,0.00023952095808388681,1.398802395209899
832,1685.15,891.2,69.3,465.0,37.24,1,Apollo,1000,4.0,2500,1686.57,683.0,1.0,1.4199999999998454,0.0015933572710949793,9.663393177736829
833,1686.57,683.0,72.5,836.0,39.01,1,Apollo,1000,4.0,2500,1687.15,709.4,1.0,0.5800000000001546,0.0008491947291363903,4.442986822841594
834,1687.15,709.4,69.4,500.0,33.72,1,Apollo,1000,4.0,2500,1688.73,674.2,1.0,1.5799999999999272,0.0022272342824921445,11.88808570623007
835,1688.73,674.2,67.9,475.0,41.81,1,Apollo,1000,4.0,2500,1689.32,732.5,1.0,0.5899999999999181,0.0008751112429544914,4.547778107385901
836,1689.32,732.5,73.9,571.0,31.36,1,Apollo,1000,4.0,2500,1690.61,544.9,1.0,1.2899999999999636,0.0017610921501705985,9.562730375426352
837,1690.61,544.9,71.8,544.0,35.96,1,Apollo,1000,4.0,2500,1691.29,674.0,1.0,0.6800000000000637,0.0012479354009911246,5.839838502478067
838,1691.29,674.0,75.9,814.0,37.73,1,Apollo,1000,4.0,2500,1692.5,501.8,1.0,1.2100000000000364,0.0017952522255193417,9.3281305637985
839,1692.5,501.8,64.2,419.0,43.52,1,Apollo,1000,4.0,2500,1693.17,369.0,1.0,0.6700000000000728,0.001335193304105366,6.017983260263707
840,1693.17,369.0,69.0,486.0,43.12,1,Apollo,1000,4.0,2500,1694.57,717.1,1.0,1.3999999999998636,0.0037940379403790343,15.08509485094704
841,1694.57,717.1,75.8,388.0,33.75,1,Apollo,1000,4.0,2500,1695.22,668.2,1.0,0.650000000000091,0.0009064286710362445,4.866071677590975
842,1695.22,668.2,71.9,885.0,44.06,1,Apollo,1000,4.0,2500,1696.66,739.4,1.0,1.4400000000000546,0.0021550434001796686,11.14760850044939
843,1696.66,739.4,74.5,530.0,38.49,1,Apollo,1000,4.0,2500,1697.14,791.9,1.0,0.4800000000000182,0.0006491750067622642,3.5429375169057336
844,1697.14,791.9,72.6,357.0,35.0,1,Apollo,1000,4.0,2500,1698.56,714.0,1.0,1.4199999999998454,0.0017931557014772641,10.16288925369254
845,1698.56,714.0,74.7,488.0,33.12,1,Apollo,1000,4.0,2500,1699.19,786.3,1.0,0.6300000000001091,0.0008823529411766234,4.725882352941995
846,1699.19,786.3,70.2,809.0,40.19,1,Apollo,1000,4.0,2500,1700.57,575.2,1.0,1.3799999999998818,0.0017550553223958816,9.90763830598923
847,1700.57,575.2,79.0,821.0,25.49,1,Apollo,1000,4.0,2500,1701.06,475.2,1.0,0.4900000000000091,0.0008518776077886111,4.089694019471564
848,1701.06,475.2,91.9,123.0,15.32,1,Apollo,1000,4.0,2500,1702.58,582.5,1.0,1.5199999999999818,0.003198653198653161,14.07663299663283
849,1702.58,582.5,77.9,519.0,27.89,1,Apollo,1000,4.0,2500,1703.11,619.4,1.0,0.5299999999999727,0.0009098712446351464,4.394678111587757
850,1703.11,619.4,74.1,512.0,30.53,1,Apollo,1000,4.0,2500,1704.54,715.3,1.0,1.4300000000000637,0.0023086858249920304,11.49171456248033
851,1704.54,715.3,72.0,509.0,33.59,1,Apollo,1000,4.0,2500,1705.13,700.0,1.0,0.5900000000001455,0.0008248287431848813,4.422071857962785
852,1705.13,700.0,76.6,591.0,29.83,1,Apollo,1000,4.0,2500,1706.71,715.5,1.0,1.5799999999999272,0.0022571428571427532,11.962857142856592
853,1706.71,715.5,75.1,478.0,30.73,1,Apollo,1000,4.0,2500,1707.24,665.9,1.0,0.5299999999999727,0.0007407407407407025,3.971851851851647
854,1707.24,665.9,72.9,737.0,32.01,1,Apollo,1000,4.0,2500,1708.6,663.5,1.0,1.3599999999999,0.002042348701006007,10.545871752514618
855,1708.6,663.5,72.5,440.0,30.29,1,Apollo,1000,4.0,2500,1709.39,636.3,1.0,0.790000000000191,0.0011906556141675826,6.13663903541972
856,1709.39,636.3,74.9,458.0,30.8,1,Apollo,1000,4.0,2500,1710.71,804.8,1.0,1.3199999999999363,0.0020744931636019746,10.466232909004681
857,1710.71,804.8,69.8,844.0,35.16,1,Apollo,1000,4.0,2500,1711.26,781.5,1.0,0.5499999999999545,0.0006833996023856294,3.9084990059638915
858,1711.26,781.5,75.9,631.0,36.62,1,Apollo,1000,4.0,2500,1712.79,671.1,1.0,1.5299999999999727,0.0019577735124759726,11.014433781189823
859,1712.79,671.1,69.1,784.0,36.66,1,Apollo,1000,4.0,2500,1713.04,673.9,1.0,0.25,0.00037252272388615704,1.9313068097153927
860,1713.04,673.9,69.8,503.0,36.82,1,Apollo,1000,4.0,2500,1714.76,671.2,1.0,1.7200000000000273,0.002552307464015473,13.260768660038792
861,1714.76,671.2,72.2,523.0,32.51,1,Apollo,1000,4.0,2500,1715.09,694.3,1.0,0.32999999999992724,0.0004916567342072813,2.5491418355179123
862,1715.09,694.3,74.4,686.0,38.04,1,Apollo,1000,4.0,2500,1716.59,643.2,1.0,1.5,0.002160449373469682,11.401123433674204
863,1716.59,643.2,69.6,557.0,36.83,1,Apollo,1000,4.0,2500,1717.17,658.9,1.0,0.5800000000001546,0.0009017412935325786,4.574353233832065
864,1717.17,658.9,74.6,463.0,32.13,1,Apollo,1000,4.0,2500,1718.55,689.1,1.0,1.3799999999998818,0.002094399757170863,10.755999392926686
865,1718.55,689.1,72.8,838.0,37.44,1,Apollo,1000,4.0,2500,1719.19,762.1,1.0,0.6400000000001,0.0009287476418518357,4.88186910462999
866,1719.19,762.1,68.4,488.0,37.85,1,Apollo,1000,4.0,2500,1720.72,722.1,1.0,1.5299999999999727,0.0020076105497965784,11.139026374491337
867,1720.72,722.1,71.2,635.0,41.55,1,Apollo,1000,4.0,2500,1721.27,665.0,1.0,0.5499999999999545,0.0007616673590914756,4.1041683977285075
868,1721.27,665.0,70.7,656.0,32.43,1,Apollo,1000,4.0,2500,1722.74,630.4,1.0,1.4700000000000273,0.0022105263157895147,11.406315789473897
869,1722.74,630.4,65.6,822.0,36.16,1,Apollo,1000,4.0,2500,1723.12,604.3,1.0,0.37999999999988177,0.0006027918781724012,3.02697969543053
870,1723.12,604.3,72.6,612.0,35.14,1,Apollo,1000,4.0,2500,1724.7,606.9,1.0,1.5800000000001546,0.0026145953996361986,12.856488499091114
871,1724.7,606.9,67.4,563.0,38.29,1,Apollo,1000,4.0,2500,1725.04,544.2,1.0,0.33999999999991815,0.0005602240896357194,2.7605602240889713
872,1725.04,544.2,67.7,649.0,44.57,1,Apollo,1000,4.0,2500,1726.53,376.5,1.0,1.490000000000009,0.002737963983829491,12.804909959573763
873,1726.53,376.5,66.2,740.0,41.33,1,Apollo,1000,4.0,2500,1727.14,356.1,1.0,0.6100000000001273,0.0016201859229751057,6.490464807438274
874,1727.14,356.1,64.4,611.0,42.74,1,Apollo,1000,4.0,2500,1728.55,312.9,1.0,1.4099999999998545,0.003959561920808353,15.5389048020203
875,1728.55,312.9,71.9,584.0,33.21,1,Apollo,1000,4.0,2500,1729.01,323.0,1.0,0.4600000000000364,0.001470118248641855,5.515295621604784
876,1729.01,323.0,68.9,549.0,38.82,1,Apollo,1000,4.0,2500,1730.6,616.4,1.0,1.5899999999999181,0.004922600619194793,18.666501547986655
877,1730.6,616.4,69.4,845.0,35.02,1,Apollo,1000,4.0,2500,1731.14,731.9,1.0,0.540000000000191,0.0008760545100587135,4.350136275147548
878,1731.14,731.9,69.7,914.0,37.14,1,Apollo,1000,4.0,2500,1732.57,429.8,1.0,1.4299999999998363,0.00195381882770848,10.604547069270545
879,1732.57,429.8,65.1,667.0,37.53,1,Apollo,1000,4.0,2500,1733.07,380.6,1.0,0.5,0.0011633317822242904,4.908329455560726
880,1733.07,380.6,65.7,488.0,37.65,1,Apollo,1000,4.0,2500,1734.56,356.3,1.0,1.490000000000009,0.003914871255911742,15.747178139779392
881,1734.56,356.3,69.7,447.0,36.55,1,Apollo,1000,4.0,2500,1735.12,397.4,1.0,0.5599999999999454,0.0015717092337915952,6.169273084478769
882,1735.12,397.4,75.4,870.0,32.68,1,Apollo,1000,4.0,2500,1736.87,689.6,1.0,1.75,0.004403623553095119,18.009058882737797
883,1736.87,689.6,71.6,734.0,30.55,1,Apollo,1000,4.0,2500,1737.04,661.5,1.0,0.17000000000007276,0.0002465197215778317,1.2962993039448705
884,1737.04,661.5,71.3,918.0,34.75,1,Apollo,1000,4.0,2500,1738.88,709.0,1.0,1.8400000000001455,0.002781557067271573,14.313892668179514
885,1738.88,709.0,71.9,454.0,33.65,1,Apollo,1000,4.0,2500,1739.22,737.7,1.0,0.33999999999991815,0.00047954866008451076,2.5588716502109494
886,1739.22,737.7,69.3,894.0,34.2,1,Apollo,1000,4.0,2500,1740.65,792.3,1.0,1.4300000000000637,0.0019384573674936475,10.566143418734374
887,1740.65,792.3,70.7,877.0,35.96,1,Apollo,1000,4.0,2500,1741.1,718.9,1.0,0.4499999999998181,0.0005679666792879189,3.2199166982190697
888,1741.1,718.9,67.7,901.0,32.82,1,Apollo,1000,4.0,2500,1742.74,728.2,1.0,1.6400000000001,0.002281263040756851,12.263157601892527
889,1742.74,728.2,69.6,499.0,35.95,1,Apollo,1000,4.0,2500,1743.27,737.5,1.0,0.5299999999999727,0.0007278220269156449,3.939555067289003
890,1743.27,737.5,67.7,683.0,37.7,1,Apollo,1000,4.0,2500,1744.84,775.8,1.0,1.5699999999999363,0.0021288135593219475,11.602033898304615
891,1744.84,775.8,69.1,854.0,39.28,1,Apollo,1000,4.0,2500,1745.02,747.9,1.0,0.18000000000006366,0.00023201856148500084,1.3000464037127568
892,1745.02,747.9,70.8,698.0,30.5,1,Apollo,1000,4.0,2500,1746.57,886.1,1.0,1.5499999999999545,0.0020724695814947915,11.381173953736797
893,1746.57,886.1,76.9,433.0,26.9,1,Apollo,1000,4.0,2500,1747.02,918.2,1.0,0.4500000000000455,0.0005078433585374624,3.069608396343838
894,1747.02,918.2,62.6,374.0,41.31,1,Apollo,1000,4.0,2500,1749.13,756.9,1.0,2.1100000000001273,0.0022979742975388013,14.184935743847513
895,1749.13,756.9,63.1,350.0,31.74,1,Apollo,1000,4.0,2500,1750.59,702.0,1.0,1.459999999999809,0.0019289205971724256,10.6623014929303
896,1750.59,702.0,77.6,395.0,31.6,1,Apollo,1000,4.0,2500,1751.1,674.7,1.0,0.5099999999999909,0.0007264957264957135,3.8562393162392476
897,1751.1,674.7,81.4,409.0,28.33,1,Apollo,1000,4.0,2500,1752.61,714.2,1.0,1.509999999999991,0.00223803171780049,11.635079294501189
898,1752.61,714.2,75.6,463.0,33.18,1,Apollo,1000,4.0,2500,1754.71,654.0,1.0,2.1000000000001364,0.0029403528423412716,15.750882105853725
899,1754.71,654.0,75.9,687.0,33.36,1,Apollo,1000,4.0,2500,1755.11,676.0,1.0,0.3999999999998636,0.000611620795106825,3.129051987766517
