,BIT_DEPTH,RATE_OF_PENETRATION,HOOK_LOAD,DIFFERENTIAL_PRESSURE,WEIGHT_ON_BIT,DRILL_BIT_ID,DRILL_BIT_NAME,CPR,CPF,CPH,NEXT_DEPTH,NEXT_RATE,PREV_ID,DEPTH_INTERVAL,TIME_INTERVAL,cost
0,105.22,1538.2,69.3,-1698,35.65,1,Apollo,1000,4.0,2500,106.11,2363.5,,0.8900000000000006,0.01811526502838816,1048.8481625709703
1,106.11,2363.5,69.3,-1693,35.53,1,Apollo,1000,4.0,2500,107.01,1632.0,1.0,0.9000000000000057,0.00038079119949228083,4.551977998730725
2,107.01,1632.0,69.3,-1689,35.36,1,Apollo,1000,4.0,2500,107.92,1631.9,1.0,0.9099999999999966,0.0005575980392156842,5.033995098039197
3,107.92,1631.9,69.3,-1684,35.36,1,Apollo,1000,4.0,2500,108.93,1631.9,1.0,1.0100000000000051,0.0006189104724554232,5.587276181138579
4,108.93,1631.9,69.9,-1678,35.24,1,Apollo,1000,4.0,2500,192.83,166.9,1.0,83.9,0.05141246399901955,464.13115999754893
5,192.83,166.9,47.7,42,14.07,1,Apollo,1000,4.0,2500,194.51,162.1,1.0,1.6799999999999784,0.010065907729179018,31.88476932294746
6,194.51,162.1,54.4,460,15.52,1,Apollo,1000,4.0,2500,196.56,264.1,1.0,2.0500000000000114,0.012646514497224006,39.81628624306006
7,196.56,264.1,57.5,342,10.7,1,Apollo,1000,4.0,2500,197.03,268.7,1.0,0.46999999999999886,0.001779628928436194,6.3290723210904805
8,197.03,268.7,57.9,459,12.45,1,Apollo,1000,4.0,2500,198.52,271.6,1.0,1.490000000000009,0.005545217714923741,19.823044287309386
9,198.52,271.6,60.4,274,9.53,1,Apollo,1000,4.0,2500,199.01,290.7,1.0,0.4899999999999807,0.001804123711340135,6.4703092783502605
10,199.01,290.7,60.3,283,8.32,1,Apollo,1000,4.0,2500,200.54,279.7,1.0,1.5300000000000011,0.005263157894736846,19.27789473684212
11,200.54,279.7,59.5,310,13.23,1,Apollo,1000,4.0,2500,205.02,212.1,1.0,4.480000000000018,0.01601716124419027,57.96290311047575
12,205.02,212.1,51.6,376,14.42,1,Apollo,1000,4.0,2500,208.56,299.3,1.0,3.539999999999992,0.016690240452616655,55.885601131541605
13,208.56,299.3,57.2,406,12.63,1,Apollo,1000,4.0,2500,209.09,283.9,1.0,0.5300000000000011,0.001770798529903111,6.5469963247577825
14,209.09,283.9,57.6,453,12.58,1,Apollo,1000,4.0,2500,210.55,297.0,1.0,1.460000000000008,0.005142655864741134,18.696639661852867
15,210.55,297.0,60.6,351,7.48,1,Apollo,1000,4.0,2500,211.06,301.4,1.0,0.5099999999999909,0.0017171717171716866,6.3329292929291805
16,211.06,301.4,61.2,380,7.53,1,Apollo,1000,4.0,2500,213.12,295.4,1.0,2.0600000000000023,0.00683477106834772,25.32692767086931
17,213.12,295.4,56.3,414,12.09,1,Apollo,1000,4.0,2500,214.57,310.9,1.0,1.4499999999999886,0.004908598510494207,18.07149627623547
18,214.57,310.9,55.9,462,11.8,1,Apollo,1000,4.0,2500,215.13,324.3,1.0,0.5600000000000023,0.0018012222579607664,6.743055644901925
19,215.13,324.3,53.9,467,13.58,1,Apollo,1000,4.0,2500,216.59,358.2,1.0,1.460000000000008,0.0045020043169904655,17.095010792476195
20,216.59,358.2,63.0,304,8.74,1,Apollo,1000,4.0,2500,218.55,332.2,1.0,1.960000000000008,0.005471803461753233,21.519508654383113
21,218.55,332.2,57.8,463,10.24,1,Apollo,1000,4.0,2500,219.28,315.3,1.0,0.7299999999999898,0.0021974714027693854,8.413678506923421
22,219.28,315.3,57.0,378,9.14,1,Apollo,1000,4.0,2500,220.62,321.9,1.0,1.3400000000000034,0.0042499207104345176,15.984801776086307
23,220.62,321.9,59.8,299,7.92,1,Apollo,1000,4.0,2500,221.11,331.5,1.0,0.4900000000000091,0.0015222118670394818,5.765529667598741
24,221.11,331.5,56.5,520,11.5,1,Apollo,1000,4.0,2500,223.07,342.9,1.0,1.9599999999999795,0.005912518853695262,22.621297134238073
25,223.07,342.9,55.1,498,12.69,1,Apollo,1000,4.0,2500,224.59,322.3,1.0,1.5200000000000102,0.004432779235928872,17.16194808982222
26,224.59,322.3,55.5,415,11.01,1,Apollo,1000,4.0,2500,225.07,354.6,1.0,0.47999999999998977,0.001489295687247874,5.6432392181196445
27,225.07,354.6,53.4,495,13.5,1,Apollo,1000,4.0,2500,226.63,364.9,1.0,1.5600000000000023,0.004399323181049076,17.238307952622698
28,226.63,364.9,58.9,328,8.23,1,Apollo,1000,4.0,2500,227.1,364.9,1.0,0.46999999999999886,0.0012880241161962152,5.100060290490534
29,227.1,364.9,58.5,387,8.78,1,Apollo,1000,4.0,2500,230.76,348.8,1.0,3.6599999999999966,0.01003014524527267,39.71536311318166
30,230.76,348.8,58.4,453,8.52,1,Apollo,1000,4.0,2500,232.67,341.7,1.0,1.9099999999999966,0.0054759174311926504,21.32979357798161
31,232.67,341.7,60.3,347,6.68,1,Apollo,1000,4.0,2500,233.15,350.1,1.0,0.4800000000000182,0.0014047410008780163,5.431852502195113
32,233.15,350.1,60.5,341,7.35,1,Apollo,1000,4.0,2500,234.55,356.5,1.0,1.4000000000000057,0.003998857469294503,15.59714367323628
33,234.55,356.5,57.9,408,8.91,1,Apollo,1000,4.0,2500,236.63,345.2,1.0,2.079999999999984,0.005834502103786772,22.906255259466867
34,236.63,345.2,59.8,395,7.64,1,Apollo,1000,4.0,2500,238.73,374.2,1.0,2.0999999999999943,0.006083429895712614,23.60857473928151
35,238.73,374.2,56.9,401,9.81,1,Apollo,1000,4.0,2500,242.64,358.2,1.0,3.9099999999999966,0.010448957776590051,41.76239444147511
36,242.64,358.2,64.5,275,1.63,1,Apollo,1000,4.0,2500,244.61,395.4,1.0,1.9700000000000273,0.005499720826354068,21.629302065885277
37,244.61,395.4,57.7,471,7.69,1,Apollo,1000,4.0,2500,246.65,382.0,1.0,2.039999999999992,0.005159332321699525,21.05833080424878
38,246.65,382.0,57.0,465,9.59,1,Apollo,1000,4.0,2500,247.14,375.7,1.0,0.4899999999999807,0.0012827225130889546,5.166806282722309
39,247.14,375.7,56.5,437,10.04,1,Apollo,1000,4.0,2500,248.61,354.1,1.0,1.4700000000000273,0.003912696300239626,15.661740750599174
40,248.61,354.1,56.4,430,9.29,1,Apollo,1000,4.0,2500,250.65,379.2,1.0,2.039999999999992,0.0057610844394238685,22.56271109855964
41,250.65,379.2,58.5,514,9.6,1,Apollo,1000,4.0,2500,251.01,385.8,1.0,0.3599999999999852,0.0009493670886075561,3.813417721518831
42,251.01,385.8,61.2,321,4.94,1,Apollo,1000,4.0,2500,254.58,383.6,1.0,3.5700000000000216,0.00925349922239508,37.41374805598778
43,254.58,383.6,56.6,445,8.31,1,Apollo,1000,4.0,2500,255.09,407.6,1.0,0.5099999999999909,0.0013295099061522181,5.363774765380509
44,255.09,407.6,57.6,382,10.1,1,Apollo,1000,4.0,2500,256.82,395.2,1.0,1.7299999999999898,0.0042443572129538506,17.530893032384583
45,256.82,395.2,57.9,383,7.79,1,Apollo,1000,4.0,2500,257.16,395.2,1.0,0.34000000000003183,0.0008603238866397566,3.510809716599519
46,257.16,395.2,57.3,317,7.71,1,Apollo,1000,4.0,2500,261.11,409.5,1.0,3.9499999999999886,0.009994939271255032,40.787348178137535
47,261.11,409.5,55.7,450,12.62,1,Apollo,1000,4.0,2500,264.66,417.3,1.0,3.5500000000000114,0.008669108669108697,35.87277167277179
48,264.66,417.3,53.8,534,10.99,1,Apollo,1000,4.0,2500,274.7,426.6,1.0,10.039999999999964,0.024059429666906215,100.30857416726539
49,274.7,426.6,60.0,391,6.08,1,Apollo,1000,4.0,2500,275.06,438.6,1.0,0.36000000000001364,0.0008438818565401163,3.5497046413503455
50,275.06,438.6,59.8,377,5.3,1,Apollo,1000,4.0,2500,276.51,439.2,1.0,1.4499999999999886,0.0033059735522115562,14.064933880528844
51,276.51,439.2,57.1,450,8.69,1,Apollo,1000,4.0,2500,277.1,427.6,1.0,0.5900000000000318,0.0013433515482696536,5.718378870674261
52,277.1,427.6,56.4,465,7.57,1,Apollo,1000,4.0,2500,278.78,424.4,1.0,1.67999999999995,0.003928905519176683,16.54226379794151
53,278.78,424.4,61.3,390,7.83,1,Apollo,1000,4.0,2500,280.57,119.9,1.0,1.7900000000000205,0.004217719132893545,17.704297832233944
54,280.57,119.9,74.1,77,1.27,1,Apollo,1000,4.0,2500,281.01,101.1,1.0,0.4399999999999977,0.0036697247706421825,10.934311926605448
55,281.01,101.1,68.3,217,5.22,1,Apollo,1000,4.0,2500,282.03,161.0,1.0,1.0199999999999818,0.010089020771513173,29.30255192878286
56,282.03,161.0,62.3,308,13.9,1,Apollo,1000,4.0,2500,284.56,269.1,1.0,2.5300000000000296,0.0157142857142859,49.405714285714865
57,284.56,269.1,61.3,300,16.43,1,Apollo,1000,4.0,2500,285.06,250.0,1.0,0.5,0.0018580453363062058,6.645113340765515
58,285.06,250.0,63.7,129,13.92,1,Apollo,1000,4.0,2500,286.67,394.9,1.0,1.6100000000000136,0.006440000000000054,22.54000000000019
59,286.67,394.9,62.9,411,12.84,1,Apollo,1000,4.0,2500,287.22,452.1,1.0,0.5500000000000114,0.0013927576601671598,5.6818941504179445
60,287.22,452.1,64.9,327,11.08,1,Apollo,1000,4.0,2500,288.54,429.7,1.0,1.3199999999999932,0.0029197080291970654,12.579270072992635
61,288.54,429.7,63.2,428,13.67,1,Apollo,1000,4.0,2500,290.16,427.5,1.0,1.6200000000000045,0.0037700721433558404,15.90518035838962
62,290.16,427.5,59.6,341,14.89,1,Apollo,1000,4.0,2500,291.06,403.8,1.0,0.8999999999999773,0.002105263157894684,8.86315789473662
63,291.06,403.8,64.4,438,12.68,1,Apollo,1000,4.0,2500,292.65,384.5,1.0,1.589999999999975,0.003937592867756253,16.203982169390535
64,292.65,384.5,62.7,397,12.12,1,Apollo,1000,4.0,2500,293.02,401.0,1.0,0.37000000000000455,0.0009622886866059936,3.885721716515002
65,293.02,401.0,61.0,244,14.94,1,Apollo,1000,4.0,2500,294.51,396.5,1.0,1.490000000000009,0.0037157107231920424,15.249276807980142
66,294.51,396.5,61.8,290,10.79,1,Apollo,1000,4.0,2500,295.07,432.0,1.0,0.5600000000000023,0.001412358133669615,5.770895334174046
67,295.07,432.0,60.4,311,12.18,1,Apollo,1000,4.0,2500,296.55,380.6,1.0,1.4800000000000182,0.003425925925925968,14.484814814814992
68,296.55,380.6,57.8,310,15.77,1,Apollo,1000,4.0,2500,299.09,265.9,1.0,2.5399999999999636,0.00667367314766149,26.84418286915358
69,299.09,265.9,62.5,308,9.55,1,Apollo,1000,4.0,2500,300.64,363.1,1.0,1.5500000000000114,0.0058292591199699565,20.773147799924935
70,300.64,363.1,62.0,322,11.32,1,Apollo,1000,4.0,2500,301.22,439.9,1.0,0.5800000000000409,0.0015973561002479782,6.31339025062011
71,301.22,439.9,63.4,351,10.57,1,Apollo,1000,4.0,2500,302.75,419.5,1.0,1.5299999999999727,0.003478063196180888,14.81515799045211
72,302.75,419.5,62.1,276,11.71,1,Apollo,1000,4.0,2500,303.13,456.6,1.0,0.37999999999999545,0.0009058402860548163,3.7846007151370227
73,303.13,456.6,62.5,280,10.74,1,Apollo,1000,4.0,2500,304.07,421.7,1.0,0.9399999999999977,0.002058694699956193,8.906736749890474
74,304.07,421.7,62.5,343,11.58,1,Apollo,1000,4.0,2500,305.06,443.8,1.0,0.9900000000000091,0.002347640502727079,9.829101256817733
75,305.06,443.8,63.3,311,12.03,1,Apollo,1000,4.0,2500,306.02,432.7,1.0,0.9599999999999795,0.002163136547994546,9.247841369986283
76,306.02,432.7,62.7,348,11.01,1,Apollo,1000,4.0,2500,307.01,419.6,1.0,0.9900000000000091,0.0022879593251675734,9.679898312918969
77,307.01,419.6,62.8,338,10.48,1,Apollo,1000,4.0,2500,308.38,442.6,1.0,1.3700000000000045,0.003265014299332709,13.64253574833179
78,308.38,442.6,62.3,310,10.24,1,Apollo,1000,4.0,2500,309.09,416.2,1.0,0.7099999999999795,0.0016041572525982365,6.850393131495509
79,309.09,416.2,58.0,488,14.72,1,Apollo,1000,4.0,2500,310.69,431.5,1.0,1.6000000000000227,0.0038443056222970274,16.010764055742662
80,310.69,431.5,62.1,399,12.43,1,Apollo,1000,4.0,2500,311.09,422.6,1.0,0.39999999999997726,0.0009269988412513956,3.9174971031283983
81,311.09,422.6,63.5,427,10.62,1,Apollo,1000,4.0,2500,312.61,466.7,1.0,1.5200000000000387,0.0035967818267866503,15.071954566966781
82,312.61,466.7,62.4,496,13.03,1,Apollo,1000,4.0,2500,313.12,451.3,1.0,0.5099999999999909,0.0010927790872080371,4.771947718020057
83,313.12,451.3,62.5,435,13.61,1,Apollo,1000,4.0,2500,314.5,370.9,1.0,1.3799999999999955,0.0030578329270994804,13.164582317748682
84,314.5,370.9,59.0,499,14.6,1,Apollo,1000,4.0,2500,315.07,395.7,1.0,0.5699999999999932,0.0015368023726071533,6.122005931517856
85,315.07,395.7,63.6,478,9.96,1,Apollo,1000,4.0,2500,316.88,329.6,1.0,1.8100000000000023,0.004574172352792526,18.675430881981324
86,316.88,329.6,63.6,394,11.38,1,Apollo,1000,4.0,2500,317.08,379.2,1.0,0.19999999999998863,0.0006067961165048198,2.3169902912620044
87,317.08,379.2,65.0,403,7.15,1,Apollo,1000,4.0,2500,318.55,425.7,1.0,1.4700000000000273,0.003876582278481085,15.571455696202822
88,318.55,425.7,65.6,363,15.62,1,Apollo,1000,4.0,2500,320.65,278.3,1.0,2.099999999999966,0.004933051444679272,20.732628611698043
89,320.65,278.3,62.3,484,13.73,1,Apollo,1000,4.0,2500,321.12,340.8,1.0,0.4700000000000273,0.0016888250089832095,6.102062522458133
90,321.12,340.8,58.2,323,12.53,1,Apollo,1000,4.0,2500,322.56,320.1,1.0,1.4399999999999977,0.004225352112676049,16.323380281690113
91,322.56,320.1,58.3,314,13.32,1,Apollo,1000,4.0,2500,323.09,374.8,1.0,0.5299999999999727,0.0016557325835675498,6.259331458918766
92,323.09,374.8,61.9,405,11.99,1,Apollo,1000,4.0,2500,324.58,409.5,1.0,1.490000000000009,0.003975453575240152,15.898633938100415
93,324.58,409.5,62.7,457,13.0,1,Apollo,1000,4.0,2500,325.13,411.1,1.0,0.5500000000000114,0.0013431013431013709,5.557753357753473
94,325.13,411.1,60.8,411,11.78,1,Apollo,1000,4.0,2500,326.56,376.8,1.0,1.4300000000000068,0.003478472391145723,14.416180977864334
95,326.56,376.8,59.2,497,13.57,1,Apollo,1000,4.0,2500,327.11,417.8,1.0,0.5500000000000114,0.0014596602972399453,5.849150743099909
96,327.11,417.8,60.2,535,12.87,1,Apollo,1000,4.0,2500,328.64,433.8,1.0,1.5299999999999727,0.0036620392532311454,15.275098133077755
97,328.64,433.8,60.4,474,11.94,1,Apollo,1000,4.0,2500,329.01,426.0,1.0,0.37000000000000455,0.0008529276164131041,3.6123190410327783
98,329.01,426.0,62.1,411,9.77,1,Apollo,1000,4.0,2500,330.32,420.0,1.0,1.3100000000000023,0.0030751173708920237,12.927793427230068
99,330.32,420.0,64.6,395,8.36,1,Apollo,1000,4.0,2500,331.09,429.4,1.0,0.7699999999999818,0.00183333333333329,7.663333333333152
100,331.09,429.4,64.6,330,8.25,1,Apollo,1000,4.0,2500,331.68,469.5,1.0,0.5900000000000318,0.0013740102468561524,5.795025617140508
101,331.68,469.5,64.3,311,8.24,1,Apollo,1000,4.0,2500,333.08,428.3,1.0,1.3999999999999773,0.002981895633652774,13.054739084131844
102,333.08,428.3,66.0,331,6.53,1,Apollo,1000,4.0,2500,334.56,275.9,1.0,1.4800000000000182,0.0034555218304926877,14.558804576231791
103,334.56,275.9,60.1,498,11.64,1,Apollo,1000,4.0,2500,336.52,396.1,1.0,1.9599999999999795,0.007104023196810366,25.60005799202583
104,336.52,396.1,64.3,515,8.23,1,Apollo,1000,4.0,2500,337.14,420.1,1.0,0.6200000000000045,0.0015652612976521194,6.393153244130317
105,337.14,420.1,60.1,468,12.76,1,Apollo,1000,4.0,2500,338.52,468.8,1.0,1.3799999999999955,0.003284932159009749,13.732330397524354
106,338.52,468.8,63.8,432,9.47,1,Apollo,1000,4.0,2500,340.51,430.5,1.0,1.990000000000009,0.004244880546075105,18.572201365187798
107,340.51,430.5,59.2,379,11.99,1,Apollo,1000,4.0,2500,341.12,462.3,1.0,0.6100000000000136,0.001416957026713156,5.982392566782945
108,341.12,462.3,57.7,483,15.03,1,Apollo,1000,4.0,2500,342.59,382.5,1.0,1.4699999999999704,0.0031797534068785864,13.829383517196348
109,342.59,382.5,58.7,520,17.26,1,Apollo,1000,4.0,2500,343.09,319.1,1.0,0.5,0.00130718954248366,5.26797385620915
110,343.09,319.1,59.1,472,19.41,1,Apollo,1000,4.0,2500,344.69,321.7,1.0,1.6000000000000227,0.0050141021623316285,18.93525540582916
111,344.69,321.7,63.1,512,10.12,1,Apollo,1000,4.0,2500,345.32,406.3,1.0,0.6299999999999955,0.001958346285359016,7.415865713397522
112,345.32,406.3,63.4,413,8.16,1,Apollo,1000,4.0,2500,346.57,464.3,1.0,1.25,0.003076544425301501,12.691361063253753
113,346.57,464.3,59.4,502,11.67,1,Apollo,1000,4.0,2500,347.17,482.5,1.0,0.6000000000000227,0.0012922679302175806,5.630669825544043
114,347.17,482.5,59.1,432,13.53,1,Apollo,1000,4.0,2500,348.51,211.7,1.0,1.339999999999975,0.0027772020725388086,12.303005181346922
115,348.51,211.7,57.5,471,15.84,1,Apollo,1000,4.0,2500,349.18,266.9,1.0,0.6700000000000159,0.003164855928200359,10.592139820500961
116,349.18,266.9,62.9,351,9.88,1,Apollo,1000,4.0,2500,350.67,481.4,1.0,1.490000000000009,0.005582615211689805,19.916538029224547
117,350.67,481.4,60.1,503,10.06,1,Apollo,1000,4.0,2500,351.1,507.9,1.0,0.4300000000000068,0.0008932280847528186,3.953070211882074
118,351.1,507.9,59.9,519,12.23,1,Apollo,1000,4.0,2500,352.58,472.9,1.0,1.4799999999999613,0.0029139594408347344,13.204898602086683
119,352.58,472.9,64.6,497,9.09,1,Apollo,1000,4.0,2500,353.01,469.4,1.0,0.4300000000000068,0.0009092831465426238,3.993207866356587
120,353.01,469.4,62.6,398,11.8,1,Apollo,1000,4.0,2500,356.03,233.1,1.0,3.019999999999982,0.006433745206646745,28.16436301661679
121,356.03,233.1,62.2,412,11.34,1,Apollo,1000,4.0,2500,358.54,303.9,1.0,2.5100000000000477,0.010767910767910973,36.959776919777624
122,358.54,303.9,59.8,479,13.53,1,Apollo,1000,4.0,2500,359.03,329.2,1.0,0.48999999999995225,0.0016123724909508136,5.990931227376843
123,359.03,329.2,53.9,435,15.02,1,Apollo,1000,4.0,2500,360.52,323.0,1.0,1.490000000000009,0.004526123936816552,17.275309842041416
124,360.52,323.0,56.4,472,13.92,1,Apollo,1000,4.0,2500,361.13,333.8,1.0,0.6100000000000136,0.001888544891640909,7.161362229102327
125,361.13,333.8,55.3,534,12.87,1,Apollo,1000,4.0,2500,362.57,401.1,1.0,1.4399999999999977,0.004313960455362485,16.544901138406203
126,362.57,401.1,57.5,614,15.59,1,Apollo,1000,4.0,2500,363.16,406.9,1.0,0.5900000000000318,0.0014709548740963147,6.037387185240914
127,363.16,406.9,59.0,524,10.95,1,Apollo,1000,4.0,2500,364.56,100.7,1.0,1.3999999999999773,0.003440648808060893,14.201622020152142
128,364.56,100.7,75.8,125,4.45,1,Apollo,1000,4.0,2500,365.0,141.0,1.0,0.4399999999999977,0.004369414101290941,12.683535253227344
129,365.0,141.0,73.4,275,9.44,1,Apollo,1000,4.0,2500,366.55,393.3,1.0,1.5500000000000114,0.01099290780141852,33.682269503546344
130,366.55,393.3,68.6,346,10.86,1,Apollo,1000,4.0,2500,367.14,429.7,1.0,0.589999999999975,0.0015001271294176836,6.110317823544109
131,367.14,429.7,69.9,461,13.56,1,Apollo,1000,4.0,2500,368.51,475.5,1.0,1.3700000000000045,0.003188270886665126,13.450677216662832
132,368.51,475.5,66.6,474,13.76,1,Apollo,1000,4.0,2500,370.1,466.1,1.0,1.5900000000000318,0.0033438485804417077,14.719621451104397
133,370.1,466.1,65.0,497,18.06,1,Apollo,1000,4.0,2500,372.59,206.6,1.0,2.4899999999999523,0.005342201244368058,23.315503110919956
134,372.59,206.6,64.4,295,12.34,1,Apollo,1000,4.0,2500,373.23,255.7,1.0,0.6400000000000432,0.0030977734753148264,10.30443368828724
135,373.23,255.7,67.3,390,13.09,1,Apollo,1000,4.0,2500,374.52,256.1,1.0,1.2899999999999636,0.00504497457958531,17.77243644896313
136,374.52,256.1,62.8,376,14.39,1,Apollo,1000,4.0,2500,376.59,314.7,1.0,2.069999999999993,0.00808278016399841,28.486950409996
137,376.59,314.7,65.1,467,16.84,1,Apollo,1000,4.0,2500,378.51,422.6,1.0,1.920000000000016,0.006101048617731223,22.93262154432812
138,378.51,422.6,60.6,440,17.61,1,Apollo,1000,4.0,2500,379.04,215.4,1.0,0.5300000000000296,0.0012541410317085412,5.255352579271472
139,379.04,215.4,60.8,233,21.02,1,Apollo,1000,4.0,2500,380.6,295.0,1.0,1.5600000000000023,0.007242339832869092,24.34584958217274
140,380.6,295.0,69.3,412,12.61,1,Apollo,1000,4.0,2500,381.19,437.3,1.0,0.589999999999975,0.001999999999999915,7.359999999999688
141,381.19,437.3,63.5,391,12.68,1,Apollo,1000,4.0,2500,382.69,461.6,1.0,1.5,0.0034301394923393546,14.575348730848386
142,382.69,461.6,69.0,471,11.68,1,Apollo,1000,4.0,2500,383.11,522.8,1.0,0.4200000000000159,0.0009098786828423221,3.9546967071058687
143,383.11,522.8,67.6,356,12.04,1,Apollo,1000,4.0,2500,384.5,462.5,1.0,1.3899999999999864,0.002658760520275414,12.20690130068848
144,384.5,462.5,69.1,514,13.98,1,Apollo,1000,4.0,2500,385.02,374.2,1.0,0.5199999999999818,0.001124324324324285,4.89081081081064
145,385.02,374.2,62.8,451,22.15,1,Apollo,1000,4.0,2500,386.13,362.5,1.0,1.1100000000000136,0.002966328166755782,11.855820416889511
146,386.13,362.5,68.4,477,13.87,1,Apollo,1000,4.0,2500,388.51,501.7,1.0,2.3799999999999955,0.0065655172413792975,25.933793103448224
147,388.51,501.7,66.1,364,12.82,1,Apollo,1000,4.0,2500,389.1,430.2,1.0,0.5900000000000318,0.0011760015945784968,5.300003986446369
148,389.1,430.2,65.2,439,15.02,1,Apollo,1000,4.0,2500,390.51,367.0,1.0,1.4099999999999682,0.003277545327754459,13.83386331938602
149,390.51,367.0,58.6,341,18.38,1,Apollo,1000,4.0,2500,391.01,307.9,1.0,0.5,0.0013623978201634877,5.405994550408719
150,391.01,307.9,60.0,375,18.61,1,Apollo,1000,4.0,2500,392.55,407.2,1.0,1.5400000000000205,0.005001623903864958,18.66405975966248
151,392.55,407.2,66.0,491,13.98,1,Apollo,1000,4.0,2500,393.21,370.0,1.0,0.6599999999999682,0.0016208251473476627,6.692062868369029
152,393.21,370.0,64.5,458,13.33,1,Apollo,1000,4.0,2500,394.61,356.4,1.0,1.400000000000034,0.0037837837837838757,15.059459459459825
153,394.61,356.4,65.7,483,13.94,1,Apollo,1000,4.0,2500,395.12,354.4,1.0,0.5099999999999909,0.0014309764309764054,5.6174410774409775
154,395.12,354.4,65.8,354,17.94,1,Apollo,1000,4.0,2500,396.06,386.0,1.0,0.9399999999999977,0.0026523702031602645,10.390925507900652
155,396.06,386.0,64.4,463,14.07,1,Apollo,1000,4.0,2500,397.02,434.4,1.0,0.9599999999999795,0.0024870466321242992,10.057616580310667
156,397.02,434.4,64.9,503,14.26,1,Apollo,1000,4.0,2500,398.5,260.2,1.0,1.4800000000000182,0.0034069981583794155,14.437495395948611
157,398.5,260.2,59.5,425,17.88,1,Apollo,1000,4.0,2500,399.02,260.5,1.0,0.5199999999999818,0.0019984627209837886,7.076156802459399
158,399.02,260.5,62.2,368,17.24,1,Apollo,1000,4.0,2500,400.68,408.4,1.0,1.660000000000025,0.006372360844529847,22.570902111324717
159,400.68,408.4,65.1,474,14.51,1,Apollo,1000,4.0,2500,401.06,425.5,1.0,0.37999999999999545,0.000930460333006845,3.846150832517094
160,401.06,425.5,63.3,544,13.84,1,Apollo,1000,4.0,2500,402.68,386.9,1.0,1.6200000000000045,0.003807285546415992,15.998213866039999
161,402.68,386.9,66.4,457,10.66,1,Apollo,1000,4.0,2500,403.03,423.3,1.0,0.3499999999999659,0.0009046265184801393,3.661566296200212
162,403.03,423.3,64.5,534,14.37,1,Apollo,1000,4.0,2500,404.65,405.1,1.0,1.6200000000000045,0.003827072997873859,16.047682494684665
163,404.65,405.1,65.5,421,13.81,1,Apollo,1000,4.0,2500,405.02,423.8,1.0,0.37000000000000455,0.0009133547272278563,3.763386818069659
164,405.02,423.8,63.1,435,16.36,1,Apollo,1000,4.0,2500,406.58,190.6,1.0,1.5600000000000023,0.0036809815950920297,15.442453987730083
165,406.58,190.6,66.1,379,11.13,1,Apollo,1000,4.0,2500,407.13,265.1,1.0,0.5500000000000114,0.002885624344176345,9.414060860440907
166,407.13,265.1,70.0,440,11.85,1,Apollo,1000,4.0,2500,408.65,404.0,1.0,1.5199999999999818,0.005733685401735125,20.414213504337738
167,408.65,404.0,65.1,431,14.86,1,Apollo,1000,4.0,2500,409.0,359.8,1.0,0.35000000000002274,0.0008663366336634227,3.565841584158648
168,409.0,359.8,58.4,400,20.23,1,Apollo,1000,4.0,2500,410.54,341.4,1.0,1.5400000000000205,0.004280155642023403,16.860389105058587
169,410.54,341.4,65.6,412,13.01,1,Apollo,1000,4.0,2500,411.14,395.6,1.0,0.5999999999999659,0.0017574692442881253,6.793673110720177
170,411.14,395.6,60.8,438,13.75,1,Apollo,1000,4.0,2500,412.59,455.1,1.0,1.4499999999999886,0.003665318503538899,14.963296258847201
171,412.59,455.1,65.2,455,13.94,1,Apollo,1000,4.0,2500,414.65,445.2,1.0,2.0600000000000023,0.004526477697209409,19.556194243023533
172,414.65,445.2,65.2,489,13.4,1,Apollo,1000,4.0,2500,416.51,255.4,1.0,1.8600000000000136,0.00417789757412402,17.884743935310105
173,416.51,255.4,66.2,440,11.13,1,Apollo,1000,4.0,2500,418.61,379.8,1.0,2.1000000000000227,0.008222396241190378,28.955990602976037
174,418.61,379.8,67.9,423,13.51,1,Apollo,1000,4.0,2500,419.15,436.3,1.0,0.5399999999999636,0.0014218009478672027,5.714502369667861
175,419.15,436.3,63.4,386,11.78,1,Apollo,1000,4.0,2500,420.54,404.5,1.0,1.3900000000000432,0.0031858812743526086,13.524703185881695
176,420.54,404.5,65.5,429,11.83,1,Apollo,1000,4.0,2500,421.0,413.4,1.0,0.45999999999997954,0.0011372064276884539,4.683016069221052
177,421.0,413.4,64.8,495,13.79,1,Apollo,1000,4.0,2500,422.61,350.6,1.0,1.6100000000000136,0.0038945331398161915,16.176332849540536
178,422.61,350.6,64.3,477,13.32,1,Apollo,1000,4.0,2500,423.15,431.6,1.0,0.5399999999999636,0.001540216771249183,6.010541928122812
179,423.15,431.6,59.0,415,16.23,1,Apollo,1000,4.0,2500,424.57,300.6,1.0,1.420000000000016,0.0032900834105653747,13.905208526413501
180,424.57,300.6,63.1,479,12.05,1,Apollo,1000,4.0,2500,425.07,346.8,1.0,0.5,0.00166333998669328,6.1583499667332005
181,425.07,346.8,61.4,515,13.87,1,Apollo,1000,4.0,2500,426.54,417.3,1.0,1.4700000000000273,0.0042387543252595935,16.476885813149092
182,426.54,417.3,60.4,463,15.97,1,Apollo,1000,4.0,2500,427.03,389.6,1.0,0.48999999999995225,0.0011742151929066674,4.895537982266477
183,427.03,389.6,63.4,533,18.98,1,Apollo,1000,4.0,2500,428.01,383.4,1.0,0.9800000000000182,0.0025154004106776647,10.208501026694234
184,428.01,383.4,58.8,460,18.08,1,Apollo,1000,4.0,2500,429.02,309.5,1.0,1.009999999999991,0.002634324465310357,10.625811163275856
185,429.02,309.5,62.4,531,14.33,1,Apollo,1000,4.0,2500,430.53,361.6,1.0,1.509999999999991,0.004878836833602556,18.237092084006356
186,430.53,361.6,60.9,456,16.06,1,Apollo,1000,4.0,2500,431.12,350.2,1.0,0.5900000000000318,0.001631637168141681,6.439092920354329
187,431.12,350.2,59.7,517,15.88,1,Apollo,1000,4.0,2500,432.56,345.3,1.0,1.4399999999999977,0.004111936036550536,16.03984009137633
188,432.56,345.3,63.9,529,12.6,1,Apollo,1000,4.0,2500,433.08,379.6,1.0,0.5199999999999818,0.0015059368664928521,5.844842166232057
189,433.08,379.6,62.6,572,16.57,1,Apollo,1000,4.0,2500,434.61,297.4,1.0,1.5300000000000296,0.004030558482613355,16.196396206533507
190,434.61,297.4,62.6,499,13.84,1,Apollo,1000,4.0,2500,435.06,300.1,1.0,0.44999999999998863,0.0015131136516475746,5.582784129118891
191,435.06,300.1,61.3,525,14.17,1,Apollo,1000,4.0,2500,436.07,346.4,1.0,1.009999999999991,0.0033655448183938378,12.453862045984557
192,436.07,346.4,60.7,613,14.47,1,Apollo,1000,4.0,2500,437.26,344.1,1.0,1.1899999999999977,0.0034353348729792084,13.348337182448011
193,437.26,344.1,64.3,513,15.41,1,Apollo,1000,4.0,2500,437.58,341.7,1.0,0.3199999999999932,0.0009299622202847811,3.6049055507119254
194,437.58,341.7,60.6,475,17.44,1,Apollo,1000,4.0,2500,440.62,403.8,1.0,3.0400000000000205,0.008896693005560494,34.401732513901315
195,440.62,403.8,62.2,578,15.51,1,Apollo,1000,4.0,2500,441.13,410.4,1.0,0.5099999999999909,0.0012630014858840783,5.197503714710159
196,441.13,410.4,60.7,560,16.74,1,Apollo,1000,4.0,2500,442.13,310.4,1.0,1.0,0.002436647173489279,10.091617933723198
197,442.13,310.4,61.8,481,11.87,1,Apollo,1000,4.0,2500,443.06,438.0,1.0,0.9300000000000068,0.0029961340206185786,11.210335051546473
198,443.06,438.0,62.0,548,15.62,1,Apollo,1000,4.0,2500,444.51,310.2,1.0,1.4499999999999886,0.0033105022831049972,14.076255707762447
199,444.51,310.2,63.2,490,12.87,1,Apollo,1000,4.0,2500,445.11,438.0,1.0,0.6000000000000227,0.0019342359767892414,7.235589941973195
200,445.11,438.0,62.3,498,13.9,1,Apollo,1000,4.0,2500,446.61,349.0,1.0,1.5,0.003424657534246575,14.561643835616438
201,446.61,349.0,58.6,441,15.94,1,Apollo,1000,4.0,2500,447.07,352.8,1.0,0.45999999999997954,0.0013180515759311734,5.135128939827851
202,447.07,352.8,52.3,520,19.49,1,Apollo,1000,4.0,2500,448.8,374.1,1.0,1.7300000000000182,0.004903628117913884,19.179070294784783
203,448.8,374.1,61.7,460,12.35,1,Apollo,1000,4.0,2500,450.68,407.7,1.0,1.8799999999999955,0.005025394279604372,20.08348569901091
204,450.68,407.7,63.3,565,12.71,1,Apollo,1000,4.0,2500,452.56,256.7,1.0,1.8799999999999955,0.004611233750306587,19.04808437576645
205,452.56,256.7,77.8,386,10.72,1,Apollo,1000,4.0,2500,453.03,307.4,1.0,0.46999999999997044,0.00183093104791574,6.457327619789232
206,453.03,307.4,76.0,438,13.31,1,Apollo,1000,4.0,2500,454.61,316.0,1.0,1.580000000000041,0.00513988288874444,19.169707221861266
207,454.61,316.0,76.2,543,11.21,1,Apollo,1000,4.0,2500,455.19,381.4,1.0,0.5799999999999841,0.0018354430379746332,6.9086075949365195
208,455.19,381.4,74.8,417,12.4,1,Apollo,1000,4.0,2500,456.61,317.4,1.0,1.420000000000016,0.0037231253277399475,14.987813319349932
209,456.61,317.4,73.0,460,17.46,1,Apollo,1000,4.0,2500,457.09,309.0,1.0,0.47999999999996135,0.001512287334593451,5.700718336483472
210,457.09,309.0,71.4,521,18.05,1,Apollo,1000,4.0,2500,458.59,370.6,1.0,1.5,0.0048543689320388345,18.135922330097088
211,458.59,370.6,68.3,354,16.55,1,Apollo,1000,4.0,2500,459.02,360.3,1.0,0.4300000000000068,0.001160280626011891,4.620701565029755
212,459.02,360.3,66.7,371,22.73,1,Apollo,1000,4.0,2500,460.61,412.6,1.0,1.5900000000000318,0.004412989175687016,17.39247293921767
213,460.61,412.6,68.9,417,15.83,1,Apollo,1000,4.0,2500,461.06,522.0,1.0,0.44999999999998863,0.0010906446921958037,4.5266117304894635
214,461.06,522.0,70.4,364,18.05,1,Apollo,1000,4.0,2500,462.59,267.5,1.0,1.5299999999999727,0.0029310344827585683,13.447586206896311
215,462.59,267.5,72.3,481,14.89,1,Apollo,1000,4.0,2500,464.76,336.3,1.0,2.170000000000016,0.00811214953271034,28.960373831775915
216,464.76,336.3,70.4,437,16.29,1,Apollo,1000,4.0,2500,465.13,322.6,1.0,0.37000000000000455,0.001100208147487376,4.230520368718458
217,465.13,322.6,73.4,446,17.39,1,Apollo,1000,4.0,2500,465.56,391.3,1.0,0.4300000000000068,0.0013329200247985333,5.052300061996361
218,465.56,391.3,69.5,481,15.8,1,Apollo,1000,4.0,2500,467.16,478.6,1.0,1.6000000000000227,0.004088934321492519,16.62233580373139
219,467.16,478.6,69.4,560,17.79,1,Apollo,1000,4.0,2500,468.6,494.0,1.0,1.4399999999999977,0.0030087755954868317,13.28193898871707
220,468.6,494.0,67.4,525,18.72,1,Apollo,1000,4.0,2500,469.01,485.5,1.0,0.40999999999996817,0.000829959514169976,3.7148987854248126
221,469.01,485.5,69.0,603,19.74,1,Apollo,1000,4.0,2500,470.8,370.9,1.0,1.7900000000000205,0.0036869207003090024,16.377301750772588
222,470.8,370.9,65.7,591,21.98,1,Apollo,1000,4.0,2500,471.1,387.4,1.0,0.30000000000001137,0.0008088433540038053,3.222108385009559
223,471.1,387.4,67.1,585,19.33,1,Apollo,1000,4.0,2500,472.09,350.6,1.0,0.9899999999999523,0.0025554981930819625,10.348745482704715
224,472.09,350.6,70.6,684,18.36,1,Apollo,1000,4.0,2500,474.59,309.6,1.0,2.5,0.0071306332002281795,27.826583000570448
225,474.59,309.6,66.2,562,18.54,1,Apollo,1000,4.0,2500,475.09,351.4,1.0,0.5,0.001614987080103359,6.037467700258397
226,475.09,351.4,67.7,557,22.26,1,Apollo,1000,4.0,2500,476.8,370.6,1.0,1.7100000000000364,0.004866249288560149,19.00562322140052
227,476.8,370.6,69.6,664,18.03,1,Apollo,1000,4.0,2500,477.1,370.3,1.0,0.30000000000001137,0.0008094981111711045,3.2237452779278066
228,477.1,370.3,63.0,505,22.05,1,Apollo,1000,4.0,2500,478.53,259.4,1.0,1.42999999999995,0.003861733729408453,15.374334323520932
229,478.53,259.4,67.4,460,17.92,1,Apollo,1000,4.0,2500,479.09,321.9,1.0,0.5600000000000023,0.002158828064764851,7.637070161912136
230,479.09,321.9,67.4,444,18.31,1,Apollo,1000,4.0,2500,480.63,473.6,1.0,1.5400000000000205,0.004784094439266917,18.120236098167375
231,480.63,473.6,63.7,486,23.53,1,Apollo,1000,4.0,2500,481.15,363.9,1.0,0.5199999999999818,0.0010979729729729344,4.824932432432263
232,481.15,363.9,71.5,572,18.51,1,Apollo,1000,4.0,2500,482.0,386.9,1.0,0.8500000000000227,0.0023358065402583755,9.23951635064603
233,482.0,386.9,66.7,590,20.91,1,Apollo,1000,4.0,2500,483.06,395.7,1.0,1.0600000000000023,0.0027397260273972664,11.089315068493175
234,483.06,395.7,66.9,403,20.01,1,Apollo,1000,4.0,2500,484.59,394.6,1.0,1.5299999999999727,0.0038665655799847683,15.786413949961812
235,484.59,394.6,67.2,479,18.43,1,Apollo,1000,4.0,2500,485.19,404.0,1.0,0.6000000000000227,0.0015205271160669608,6.201317790167493
236,485.19,404.0,74.4,429,10.5,1,Apollo,1000,4.0,2500,486.02,493.1,1.0,0.8299999999999841,0.002054455445544515,8.456138613861224
237,486.02,493.1,70.8,475,18.31,1,Apollo,1000,4.0,2500,488.73,462.0,1.0,2.7100000000000364,0.005495842628270201,24.57960657067565
238,488.73,462.0,68.9,550,16.11,1,Apollo,1000,4.0,2500,489.36,466.9,1.0,0.6299999999999955,0.0013636363636363538,5.929090909090866
239,489.36,466.9,69.3,558,14.58,1,Apollo,1000,4.0,2500,490.58,453.4,1.0,1.2199999999999704,0.0026129792246733148,11.412448061683168
240,490.58,453.4,65.2,482,20.08,1,Apollo,1000,4.0,2500,491.08,456.0,1.0,0.5,0.0011027790030877812,4.7569475077194525
241,491.08,456.0,64.5,549,17.22,1,Apollo,1000,4.0,2500,492.61,412.7,1.0,1.5300000000000296,0.003355263157894802,14.508157894737124
242,492.61,412.7,67.1,449,18.19,1,Apollo,1000,4.0,2500,493.05,395.4,1.0,0.4399999999999977,0.0010661497455778963,4.425374363944732
243,493.05,395.4,65.6,471,18.33,1,Apollo,1000,4.0,2500,494.54,336.2,1.0,1.490000000000009,0.0037683358624178284,15.380839656044607
244,494.54,336.2,65.8,560,22.33,1,Apollo,1000,4.0,2500,495.01,339.2,1.0,0.46999999999997044,0.0013979773944080027,5.374943486019888
245,495.01,339.2,69.4,616,19.02,1,Apollo,1000,4.0,2500,496.56,438.3,1.0,1.5500000000000114,0.004569575471698147,17.623938679245413
246,496.56,438.3,63.7,469,22.09,1,Apollo,1000,4.0,2500,498.56,291.9,1.0,2.0,0.004563084645220168,19.40771161305042
247,498.56,291.9,66.3,600,22.35,1,Apollo,1000,4.0,2500,500.58,374.6,1.0,2.019999999999982,0.006920178143199664,25.380445357999086
248,500.58,374.6,63.9,624,20.59,1,Apollo,1000,4.0,2500,501.05,373.5,1.0,0.4700000000000273,0.0012546716497598164,5.01667912439965
249,501.05,373.5,60.3,580,19.01,1,Apollo,1000,4.0,2500,502.55,390.4,1.0,1.5,0.004016064257028112,16.040160642570278
250,502.55,390.4,60.5,613,23.23,1,Apollo,1000,4.0,2500,503.0,367.0,1.0,0.44999999999998863,0.0011526639344262004,4.681659836065456
251,503.0,367.0,66.6,485,17.19,1,Apollo,1000,4.0,2500,504.5,323.6,1.0,1.5,0.004087193460490464,16.21798365122616
252,504.5,323.6,69.2,639,26.38,1,Apollo,1000,4.0,2500,505.07,302.7,1.0,0.5699999999999932,0.001761433868974021,6.683584672435025
253,505.07,302.7,66.7,589,24.58,1,Apollo,1000,4.0,2500,506.51,395.7,1.0,1.4399999999999977,0.004757185332011886,17.652963330029706
254,506.51,395.7,65.5,578,17.29,1,Apollo,1000,4.0,2500,507.01,439.7,1.0,0.5,0.0012635835228708618,5.158958807177155
255,507.01,439.7,66.0,627,20.72,1,Apollo,1000,4.0,2500,508.59,425.0,1.0,1.579999999999984,0.0035933591084830203,15.303397771207488
256,508.59,425.0,66.9,548,16.81,1,Apollo,1000,4.0,2500,510.66,496.0,1.0,2.07000000000005,0.004870588235294235,20.45647058823579
257,510.66,496.0,64.1,579,16.35,1,Apollo,1000,4.0,2500,511.23,446.5,1.0,0.5699999999999932,0.001149193548387083,5.152983870967681
258,511.23,446.5,64.8,520,15.83,1,Apollo,1000,4.0,2500,512.18,431.0,1.0,0.9499999999999318,0.002127659574467932,9.119148936169557
259,512.18,431.0,66.7,624,16.07,1,Apollo,1000,4.0,2500,513.01,463.0,1.0,0.8300000000000409,0.0019257540603249208,8.134385150812466
260,513.01,463.0,67.2,565,15.72,1,Apollo,1000,4.0,2500,514.6,446.5,1.0,1.5900000000000318,0.0034341252699784702,14.945313174946303
261,514.6,446.5,64.4,624,21.56,1,Apollo,1000,4.0,2500,515.16,398.9,1.0,0.5599999999999454,0.0012541993281073806,5.375498320268234
262,515.16,398.9,63.3,514,20.22,1,Apollo,1000,4.0,2500,516.62,403.5,1.0,1.4600000000000364,0.0036600651792430094,14.990162948107669
263,516.62,403.5,66.9,585,18.3,1,Apollo,1000,4.0,2500,517.03,456.0,1.0,0.40999999999996817,0.001016109045848744,4.180272614621733
264,517.03,456.0,71.1,516,12.36,1,Apollo,1000,4.0,2500,518.61,395.1,1.0,1.580000000000041,0.0034649122807018443,14.982280701754775
265,518.61,395.1,61.3,484,17.99,1,Apollo,1000,4.0,2500,519.14,350.1,1.0,0.5299999999999727,0.0013414325487217734,5.4735813718043245
266,519.14,350.1,66.1,490,20.57,1,Apollo,1000,4.0,2500,520.72,347.6,1.0,1.580000000000041,0.004512996286775324,17.602490716938476
267,520.72,347.6,62.8,526,18.73,1,Apollo,1000,4.0,2500,521.1,388.3,1.0,0.37999999999999545,0.0010932105868814597,4.253026467203631
268,521.1,388.3,61.0,541,22.93,1,Apollo,1000,4.0,2500,522.85,449.6,1.0,1.75,0.004506824620139067,18.26706155034767
269,522.85,449.6,66.8,489,16.78,1,Apollo,1000,4.0,2500,523.41,414.1,1.0,0.5599999999999454,0.001245551601423366,5.3538790035581965
270,523.41,414.1,63.2,460,19.01,1,Apollo,1000,4.0,2500,524.62,460.0,1.0,1.2100000000000364,0.002921999517024961,12.144998792562546
271,524.62,460.0,71.1,473,10.51,1,Apollo,1000,4.0,2500,525.07,387.2,1.0,0.4500000000000455,0.0009782608695653161,4.245652173913472
272,525.07,387.2,70.2,592,18.67,1,Apollo,1000,4.0,2500,526.5,335.9,1.0,1.42999999999995,0.0036931818181816893,14.952954545454023
273,526.5,335.9,61.4,546,20.31,1,Apollo,1000,4.0,2500,527.08,268.7,1.0,0.5800000000000409,0.001726704376302593,6.636760940756646
274,527.08,268.7,66.7,608,26.29,1,Apollo,1000,4.0,2500,528.71,263.1,1.0,1.6299999999999955,0.00606624488276887,21.68561220692216
275,528.71,263.1,63.7,577,23.11,1,Apollo,1000,4.0,2500,529.0,247.9,1.0,0.2899999999999636,0.0011022424933483984,3.9156062333708506
276,529.0,247.9,65.1,525,18.91,1,Apollo,1000,4.0,2500,530.55,236.3,1.0,1.5499999999999545,0.006252521177894129,21.831302944735143
277,530.55,236.3,58.0,453,24.31,1,Apollo,1000,4.0,2500,531.06,243.1,1.0,0.5099999999999909,0.0021582733812949254,7.435683453237277
278,531.06,243.1,63.2,489,20.02,1,Apollo,1000,4.0,2500,533.27,373.2,1.0,2.2100000000000364,0.009090909090909241,31.56727272727325
279,533.27,373.2,66.8,465,15.29,1,Apollo,1000,4.0,2500,534.59,404.3,1.0,1.32000000000005,0.003536977491961549,14.122443729904072
280,534.59,404.3,63.2,542,19.97,1,Apollo,1000,4.0,2500,535.31,400.1,1.0,0.7199999999999136,0.001780855800148191,7.332139500370132
281,535.31,400.1,63.3,517,17.94,1,Apollo,1000,4.0,2500,536.5,105.8,1.0,1.1900000000000546,0.002974256435891163,12.195641089728127
282,536.5,105.8,93.9,-11,4.7,1,Apollo,1000,4.0,2500,537.06,193.6,1.0,0.5599999999999454,0.005293005671076989,15.472514177692254
283,537.06,193.6,82.8,441,10.31,1,Apollo,1000,4.0,2500,538.68,461.5,1.0,1.6200000000000045,0.008367768595041345,27.39942148760338
284,538.68,461.5,75.6,426,16.77,1,Apollo,1000,4.0,2500,539.1,456.7,1.0,0.42000000000007276,0.000910075839653462,3.955189599133946
285,539.1,456.7,73.6,565,18.55,1,Apollo,1000,4.0,2500,540.55,468.1,1.0,1.4499999999999318,0.003174950733522951,13.737376833807105
286,540.55,468.1,73.7,550,19.68,1,Apollo,1000,4.0,2500,541.16,490.1,1.0,0.6100000000000136,0.0013031403546251092,5.6978508865628275
287,541.16,490.1,72.0,452,20.69,1,Apollo,1000,4.0,2500,542.58,507.1,1.0,1.4200000000000728,0.002897367884105433,12.923419710263873
288,542.58,507.1,76.3,539,18.27,1,Apollo,1000,4.0,2500,543.0,487.6,1.0,0.4199999999999591,0.0008282390061131119,3.750597515282616
289,543.0,487.6,69.5,445,20.9,1,Apollo,1000,4.0,2500,544.73,427.3,1.0,1.7300000000000182,0.0035479901558655006,15.789975389663825
290,544.73,427.3,70.8,525,18.35,1,Apollo,1000,4.0,2500,545.09,415.0,1.0,0.36000000000001364,0.0008424994149309937,3.5462485373275388
291,545.09,415.0,74.8,537,15.67,1,Apollo,1000,4.0,2500,546.65,398.5,1.0,1.5599999999999454,0.0037590361445781818,15.637590361445236
292,546.65,398.5,68.7,445,21.63,1,Apollo,1000,4.0,2500,547.04,346.1,1.0,0.38999999999998636,0.0009786700125470173,4.006675031367489
293,547.04,346.1,75.0,624,22.45,1,Apollo,1000,4.0,2500,548.56,215.7,1.0,1.5199999999999818,0.004391794279110031,17.059485697775003
294,548.56,215.7,64.4,446,25.04,1,Apollo,1000,4.0,2500,549.0,200.3,1.0,0.44000000000005457,0.0020398701900790663,6.859675475197884
295,549.0,200.3,72.3,412,21.52,1,Apollo,1000,4.0,2500,550.5,476.3,1.0,1.5,0.0074887668497254116,24.721917124313528
296,550.5,476.3,70.6,425,19.93,1,Apollo,1000,4.0,2500,551.04,455.0,1.0,0.5399999999999636,0.0011337392399747293,4.994348099936678
297,551.04,455.0,76.0,547,19.48,1,Apollo,1000,4.0,2500,552.55,381.0,1.0,1.509999999999991,0.0033186813186812983,14.33670329670321
298,552.55,381.0,69.6,537,18.14,1,Apollo,1000,4.0,2500,553.05,399.2,1.0,0.5,0.0013123359580052493,5.2808398950131235
299,553.05,399.2,66.2,412,24.08,1,Apollo,1000,4.0,2500,554.63,340.5,1.0,1.580000000000041,0.003957915831663429,16.214789579158737
300,554.63,340.5,62.7,425,25.71,1,Apollo,1000,4.0,2500,555.16,338.2,1.0,0.5299999999999727,0.0015565345080762781,6.011336270190586
301,555.16,338.2,69.0,538,24.92,1,Apollo,1000,4.0,2500,556.52,413.2,1.0,1.3600000000000136,0.004021289178001223,15.493222945003112
302,556.52,413.2,66.4,616,23.92,1,Apollo,1000,4.0,2500,557.15,366.4,1.0,0.6299999999999955,0.0015246853823814024,6.331713455953487
303,557.15,366.4,71.1,519,18.99,1,Apollo,1000,4.0,2500,558.64,392.9,1.0,1.490000000000009,0.004066593886462907,16.126484716157304
304,558.64,392.9,57.7,419,31.77,1,Apollo,1000,4.0,2500,559.1,293.0,1.0,0.4600000000000364,0.0011707813693052594,4.766953423263294
305,559.1,293.0,70.5,610,18.72,1,Apollo,1000,4.0,2500,560.51,359.4,1.0,1.4099999999999682,0.004812286689419687,17.67071672354909
306,560.51,359.4,75.4,416,24.07,1,Apollo,1000,4.0,2500,561.03,326.3,1.0,0.5199999999999818,0.0014468558708958872,5.697139677239646
307,561.03,326.3,76.9,568,16.6,1,Apollo,1000,4.0,2500,562.51,487.4,1.0,1.4800000000000182,0.004535703340484273,17.259258351210754
308,562.51,487.4,69.2,596,20.85,1,Apollo,1000,4.0,2500,563.0,457.0,1.0,0.4900000000000091,0.001005334427574906,4.473336068937301
309,563.0,457.0,69.4,593,23.53,1,Apollo,1000,4.0,2500,564.68,435.9,1.0,1.67999999999995,0.003676148796498796,15.91037199124679
310,564.68,435.9,71.3,578,20.15,1,Apollo,1000,4.0,2500,565.05,429.1,1.0,0.37000000000000455,0.0008488185363615613,3.602046340903921
311,565.05,429.1,65.7,558,22.51,1,Apollo,1000,4.0,2500,566.67,435.2,1.0,1.6200000000000045,0.0037753437427173256,15.918359356793331
312,566.67,435.2,76.2,539,19.22,1,Apollo,1000,4.0,2500,568.67,487.1,1.0,2.0,0.004595588235294118,19.488970588235297
313,568.67,487.1,77.0,444,13.83,1,Apollo,1000,4.0,2500,569.11,494.6,1.0,0.44000000000005457,0.0009033052761241111,4.0182631903104955
314,569.11,494.6,76.8,472,13.47,1,Apollo,1000,4.0,2500,570.79,485.6,1.0,1.67999999999995,0.0033966841892437323,15.21171047310913
315,570.79,485.6,76.3,429,19.03,1,Apollo,1000,4.0,2500,571.0,517.9,1.0,0.21000000000003638,0.00043245469522248015,1.921136738056346
316,571.0,517.9,69.1,474,21.63,1,Apollo,1000,4.0,2500,572.6,473.7,1.0,1.6000000000000227,0.0030893994979726254,14.123498744931656
317,572.6,473.7,74.1,422,16.78,1,Apollo,1000,4.0,2500,573.05,515.5,1.0,0.4499999999999318,0.0009499683343887098,4.174920835971502
318,573.05,515.5,76.4,436,17.69,1,Apollo,1000,4.0,2500,574.66,414.5,1.0,1.6100000000000136,0.003123181377303615,14.247953443259092
319,574.66,414.5,68.5,386,18.5,1,Apollo,1000,4.0,2500,575.11,442.7,1.0,0.4500000000000455,0.0010856453558505319,4.5141133896265115
320,575.11,442.7,72.7,548,16.41,1,Apollo,1000,4.0,2500,576.57,459.4,1.0,1.4600000000000364,0.003297944431895271,14.084861079738323
321,576.57,459.4,71.7,510,15.68,1,Apollo,1000,4.0,2500,577.2,449.3,1.0,0.6299999999999955,0.0013713539399216271,5.94838484980405
322,577.2,449.3,68.5,581,20.64,1,Apollo,1000,4.0,2500,578.61,581.4,1.0,1.4099999999999682,0.003138215001112771,13.4855375027818
323,578.61,581.4,73.9,378,10.59,1,Apollo,1000,4.0,2500,579.0,552.0,1.0,0.38999999999998636,0.0006707946336429074,3.236986584107214
324,579.0,552.0,76.4,576,17.94,1,Apollo,1000,4.0,2500,580.64,533.7,1.0,1.6399999999999864,0.0029710144927535985,13.987536231883942
325,580.64,533.7,75.2,546,21.7,1,Apollo,1000,4.0,2500,581.07,545.3,1.0,0.43000000000006366,0.000805696083942409,3.734240209856277
326,581.07,545.3,74.2,683,15.77,1,Apollo,1000,4.0,2500,582.71,352.7,1.0,1.6399999999999864,0.0030075187969924567,14.078796992481088
327,582.71,352.7,72.3,684,19.1,1,Apollo,1000,4.0,2500,583.23,290.1,1.0,0.5199999999999818,0.0014743407995463052,5.76585199886569
328,583.23,290.1,77.2,680,15.08,1,Apollo,1000,4.0,2500,584.7,308.2,1.0,1.4700000000000273,0.00506721820062057,18.548045501551535
329,584.7,308.2,64.0,538,24.69,1,Apollo,1000,4.0,2500,585.0,350.2,1.0,0.2999999999999545,0.0009733939000647454,3.633484750161682
330,585.0,350.2,72.6,554,18.13,1,Apollo,1000,4.0,2500,586.63,507.0,1.0,1.6299999999999955,0.004654483152484281,18.156207881210683
331,586.63,507.0,70.1,615,19.81,1,Apollo,1000,4.0,2500,587.07,498.8,1.0,0.44000000000005457,0.0008678500986194369,3.9296252465488104
332,587.07,498.8,77.4,630,14.41,1,Apollo,1000,4.0,2500,588.66,505.6,1.0,1.5899999999999181,0.0031876503608659146,14.32912590216446
333,588.66,505.6,76.2,513,12.21,1,Apollo,1000,4.0,2500,589.12,554.8,1.0,0.4600000000000364,0.0009098101265823503,4.114525316456021
334,589.12,554.8,76.3,508,12.38,1,Apollo,1000,4.0,2500,590.71,513.1,1.0,1.5900000000000318,0.002865897620764297,13.524744051910869
335,590.71,513.1,66.9,560,21.74,1,Apollo,1000,4.0,2500,591.11,490.2,1.0,0.39999999999997726,0.0007795751315532591,3.548937828883057
336,591.11,490.2,64.2,543,24.98,1,Apollo,1000,4.0,2500,592.69,298.7,1.0,1.580000000000041,0.0032231742146063666,14.37793553651608
337,592.69,298.7,66.9,668,28.22,1,Apollo,1000,4.0,2500,593.07,289.4,1.0,0.37999999999999545,0.0012721794442584382,4.700448610646077
338,593.07,289.4,64.4,622,27.67,1,Apollo,1000,4.0,2500,594.85,479.8,1.0,1.7799999999999727,0.00615065653075319,22.496641326882866
339,594.85,479.8,73.1,627,17.68,1,Apollo,1000,4.0,2500,595.08,537.2,1.0,0.2300000000000182,0.0004793664026678161,2.118416006669613
340,595.08,537.2,73.1,576,18.13,1,Apollo,1000,4.0,2500,596.67,550.3,1.0,1.5899999999999181,0.0029597915115411725,13.759478778852603
341,596.67,550.3,65.5,478,21.24,1,Apollo,1000,4.0,2500,597.28,461.1,1.0,0.6100000000000136,0.0011084862802108188,5.211215700527102
342,597.28,461.1,65.5,668,26.54,1,Apollo,1000,4.0,2500,598.65,544.1,1.0,1.3700000000000045,0.0029711559314682377,12.907889828670612
343,598.65,544.1,71.5,519,20.19,1,Apollo,1000,4.0,2500,599.09,499.8,1.0,0.44000000000005457,0.0008086748759420227,3.781687189855275
344,599.09,499.8,70.0,757,21.13,1,Apollo,1000,4.0,2500,600.66,414.0,1.0,1.5699999999999363,0.003141256502600913,14.133141256502029
345,600.66,414.0,67.4,756,20.43,1,Apollo,1000,4.0,2500,601.04,426.1,1.0,0.37999999999999545,0.0009178743961352546,3.8146859903381185
346,601.04,426.1,66.0,669,21.86,1,Apollo,1000,4.0,2500,602.67,511.3,1.0,1.6299999999999955,0.0038253931002112072,16.083482750528
347,602.67,511.3,67.6,679,20.47,1,Apollo,1000,4.0,2500,603.12,526.9,1.0,0.4500000000000455,0.0008801095247409456,4.000273811852546
348,603.12,526.9,69.4,604,18.31,1,Apollo,1000,4.0,2500,604.66,481.8,1.0,1.5399999999999636,0.0029227557411272793,13.466889352818054
349,604.66,481.8,69.2,666,22.59,1,Apollo,1000,4.0,2500,605.1,477.4,1.0,0.44000000000005457,0.0009132420091325333,4.0431050228315515
350,605.1,477.4,63.8,770,20.77,1,Apollo,1000,4.0,2500,606.55,401.9,1.0,1.4499999999999318,0.003037285295349669,13.3932132383739
351,606.55,401.9,64.1,680,26.37,1,Apollo,1000,4.0,2500,607.1,396.7,1.0,0.5500000000000682,0.001368499626772999,5.62124906693277
352,607.1,396.7,67.2,617,19.59,1,Apollo,1000,4.0,2500,608.56,447.2,1.0,1.4599999999999227,0.0036803629947061325,15.040907486765022
353,608.56,447.2,60.2,541,24.85,1,Apollo,1000,4.0,2500,609.08,438.4,1.0,0.5200000000000955,0.0011627906976746322,4.986976744186963
354,609.08,438.4,66.2,700,30.34,1,Apollo,1000,4.0,2500,610.71,476.8,1.0,1.6299999999999955,0.0037180656934306467,15.8151642335766
355,610.71,476.8,65.8,642,20.32,1,Apollo,1000,4.0,2500,611.1,442.5,1.0,0.38999999999998636,0.0008179530201341996,3.6048825503354442
356,611.1,442.5,56.2,667,29.55,1,Apollo,1000,4.0,2500,612.77,462.4,1.0,1.669999999999959,0.0037740112994349355,16.115028248587173
357,612.77,462.4,76.5,586,14.52,1,Apollo,1000,4.0,2500,613.01,520.3,1.0,0.2400000000000091,0.0005190311418685318,2.257577854671366
358,613.01,520.3,76.5,590,12.5,1,Apollo,1000,4.0,2500,614.61,381.9,1.0,1.6000000000000227,0.003075148952527432,14.087872381318672
359,614.61,381.9,68.5,664,22.08,1,Apollo,1000,4.0,2500,615.04,391.5,1.0,0.42999999999995,0.001125949201361482,4.534873003403504
360,615.04,391.5,74.0,670,11.34,1,Apollo,1000,4.0,2500,616.62,542.5,1.0,1.580000000000041,0.004035759897828968,16.409399744572582
361,616.62,542.5,70.1,455,15.25,1,Apollo,1000,4.0,2500,617.12,479.8,1.0,0.5,0.0009216589861751152,4.304147465437788
362,617.12,479.8,75.4,533,16.24,1,Apollo,1000,4.0,2500,618.58,515.0,1.0,1.4600000000000364,0.003042934556065103,13.447336390162903
363,618.58,515.0,64.9,711,21.62,1,Apollo,1000,4.0,2500,619.0,482.0,1.0,0.4199999999999591,0.0008155339805824448,3.7188349514559484
364,619.0,482.0,71.4,694,16.56,1,Apollo,1000,4.0,2500,620.53,541.2,1.0,1.5299999999999727,0.0031742738589211053,14.055684647302655
365,620.53,541.2,68.8,693,18.99,1,Apollo,1000,4.0,2500,621.16,470.9,1.0,0.6299999999999955,0.0011640798226163994,5.43019955654098
366,621.16,470.9,62.3,707,26.45,1,Apollo,1000,4.0,2500,622.76,458.0,1.0,1.6000000000000227,0.003397748991293317,14.894372478233382
367,622.76,458.0,69.7,668,28.9,1,Apollo,1000,4.0,2500,623.21,411.8,1.0,0.4500000000000455,0.0009825327510918024,4.2563318777296875
368,623.21,411.8,63.8,699,20.96,1,Apollo,1000,4.0,2500,625.1,132.9,1.0,1.8899999999999864,0.004589606605148097,19.03401651287019
369,625.1,132.9,80.1,371,14.09,1,Apollo,1000,4.0,2500,626.52,312.9,1.0,1.419999999999959,0.010684725357411278,32.39181339352803
370,626.52,312.9,71.0,630,21.04,1,Apollo,1000,4.0,2500,627.07,347.9,1.0,0.5500000000000682,0.0017577500798979491,6.594375199745146
371,627.07,347.9,70.3,488,25.23,1,Apollo,1000,4.0,2500,628.53,296.8,1.0,1.4599999999999227,0.0041966082207528675,16.33152055188186
372,628.53,296.8,71.4,456,21.5,1,Apollo,1000,4.0,2500,629.01,269.8,1.0,0.4800000000000182,0.0016172506738545086,5.963126684636344
373,629.01,269.8,72.7,702,21.53,1,Apollo,1000,4.0,2500,630.59,311.2,1.0,1.580000000000041,0.0058561897702003,20.960474425500912
374,630.59,311.2,65.6,645,26.7,1,Apollo,1000,4.0,2500,631.05,394.7,1.0,0.4599999999999227,0.001478149100256821,5.535372750641743
375,631.05,394.7,71.2,645,20.14,1,Apollo,1000,4.0,2500,632.51,406.8,1.0,1.4600000000000364,0.0036990119077781516,15.087529769445524
376,632.51,406.8,72.2,507,25.43,1,Apollo,1000,4.0,2500,633.16,309.0,1.0,0.6499999999999773,0.0015978367748278694,6.594591937069582
377,633.16,309.0,69.5,641,23.24,1,Apollo,1000,4.0,2500,634.61,501.8,1.0,1.4500000000000455,0.004692556634304354,17.531391585761067
378,634.61,501.8,72.6,623,24.38,1,Apollo,1000,4.0,2500,635.01,479.0,1.0,0.39999999999997726,0.0007971303308090419,3.592825827022514
379,635.01,479.0,67.4,728,29.49,1,Apollo,1000,4.0,2500,636.69,320.8,1.0,1.6800000000000637,0.0035073068893529515,15.488267223382634
380,636.69,320.8,69.9,587,29.0,1,Apollo,1000,4.0,2500,637.07,346.2,1.0,0.37999999999999545,0.0011845386533665694,4.481346633416406
381,637.07,346.2,67.2,467,24.93,1,Apollo,1000,4.0,2500,638.59,301.1,1.0,1.5199999999999818,0.004390525707683368,17.056314269208347
382,638.59,301.1,73.0,700,22.56,1,Apollo,1000,4.0,2500,639.01,283.7,1.0,0.4199999999999591,0.0013948854201260678,5.167213550315006
383,639.01,283.7,71.3,506,28.05,1,Apollo,1000,4.0,2500,640.64,309.1,1.0,1.6299999999999955,0.005745505816002804,20.883764540006993
384,640.64,309.1,67.6,568,22.84,1,Apollo,1000,4.0,2500,641.07,381.2,1.0,0.43000000000006366,0.0013911355548368283,5.197838887092326
385,641.07,381.2,69.0,603,25.38,1,Apollo,1000,4.0,2500,642.55,419.7,1.0,1.4799999999999045,0.0038824763903460243,15.626190975864679
386,642.55,419.7,70.8,517,31.08,1,Apollo,1000,4.0,2500,643.08,394.5,1.0,0.5300000000000864,0.001262806766738352,5.277016916846225
387,643.08,394.5,72.5,607,31.38,1,Apollo,1000,4.0,2500,644.63,447.8,1.0,1.5499999999999545,0.003929024081115221,16.022560202787872
388,644.63,447.8,63.7,619,28.91,1,Apollo,1000,4.0,2500,646.81,402.6,1.0,2.17999999999995,0.004868244752121371,20.890611880303226
389,646.81,402.6,70.9,709,27.64,1,Apollo,1000,4.0,2500,647.0,387.4,1.0,0.19000000000005457,0.0004719324391456894,1.9398310978644417
390,647.0,387.4,70.9,480,23.73,1,Apollo,1000,4.0,2500,648.58,475.4,1.0,1.580000000000041,0.004078471863706869,16.516179659267337
391,648.58,475.4,70.6,704,31.49,1,Apollo,1000,4.0,2500,649.14,447.9,1.0,0.5599999999999454,0.001177955405973802,5.184888514934286
392,649.14,447.9,70.0,613,27.45,1,Apollo,1000,4.0,2500,650.63,446.5,1.0,1.490000000000009,0.003326635409689683,14.276588524224243
393,650.63,446.5,62.6,513,31.69,1,Apollo,1000,4.0,2500,651.2,421.7,1.0,0.57000000000005,0.001276595744680963,5.4714893617026075
394,651.2,421.7,69.4,603,28.07,1,Apollo,1000,4.0,2500,652.65,474.5,1.0,1.4499999999999318,0.0034384633625798716,14.396158406449405
395,652.65,474.5,71.8,825,20.24,1,Apollo,1000,4.0,2500,653.12,416.2,1.0,0.4700000000000273,0.000990516332982144,4.356290832455469
396,653.12,416.2,68.8,742,28.07,1,Apollo,1000,4.0,2500,654.88,468.1,1.0,1.759999999999991,0.004228736184526648,17.611840461316582
397,654.88,468.1,59.1,629,30.67,1,Apollo,1000,4.0,2500,655.11,485.7,1.0,0.2300000000000182,0.0004913480025635936,2.1483700064090567
398,655.11,485.7,65.7,724,27.36,1,Apollo,1000,4.0,2500,656.64,385.8,1.0,1.5299999999999727,0.003150092649783761,13.995231624459294
399,656.64,385.8,63.4,657,36.27,1,Apollo,1000,4.0,2500,657.05,375.3,1.0,0.40999999999996817,0.0010627268014514466,4.296817003628489
400,657.05,375.3,71.7,706,27.14,1,Apollo,1000,4.0,2500,658.65,393.5,1.0,1.6000000000000227,0.0042632560618172735,17.058140154543274
401,658.65,393.5,63.4,742,29.78,1,Apollo,1000,4.0,2500,659.08,352.5,1.0,0.43000000000006366,0.0010927573062263372,4.451893265566097
402,659.08,352.5,63.0,631,28.74,1,Apollo,1000,4.0,2500,660.59,268.3,1.0,1.509999999999991,0.004283687943262385,16.749219858155925
403,660.59,268.3,72.1,681,24.24,1,Apollo,1000,4.0,2500,661.03,346.3,1.0,0.4399999999999409,0.0016399552739468537,5.8598881848668976
404,661.03,346.3,63.8,665,23.81,1,Apollo,1000,4.0,2500,662.54,311.5,1.0,1.509999999999991,0.004360381172393852,16.940952930984594
405,662.54,311.5,63.8,654,30.8,1,Apollo,1000,4.0,2500,663.04,282.9,1.0,0.5,0.0016051364365971107,6.012841091492777
406,663.04,282.9,67.0,545,24.66,1,Apollo,1000,4.0,2500,664.7,470.8,1.0,1.6600000000000819,0.005867797808413157,21.30949452103322
407,664.7,470.8,68.6,717,29.42,1,Apollo,1000,4.0,2500,665.0,424.2,1.0,0.2999999999999545,0.0006372132540355874,2.7930331350887867
408,665.0,424.2,68.1,742,27.98,1,Apollo,1000,4.0,2500,666.67,419.5,1.0,1.669999999999959,0.0039368222536538405,16.52205563413444
409,666.67,419.5,67.1,476,30.43,1,Apollo,1000,4.0,2500,667.06,391.6,1.0,0.38999999999998636,0.0009296781883193953,3.8841954707984336
410,667.06,391.6,69.9,665,21.4,1,Apollo,1000,4.0,2500,668.5,362.8,1.0,1.4400000000000546,0.0036772216547498837,14.953054136874927
411,668.5,362.8,63.8,701,25.29,1,Apollo,1000,4.0,2500,669.11,367.9,1.0,0.6100000000000136,0.0016813671444322314,6.643417861080633
412,669.11,367.9,70.0,518,33.34,1,Apollo,1000,4.0,2500,670.55,378.4,1.0,1.4399999999999409,0.0039141070943189485,15.545267735797134
413,670.55,378.4,59.3,608,33.7,1,Apollo,1000,4.0,2500,671.2,280.4,1.0,0.650000000000091,0.001717758985201086,6.894397463003079
414,671.2,280.4,66.6,724,29.59,1,Apollo,1000,4.0,2500,672.66,271.1,1.0,1.4599999999999227,0.0052068473609127065,18.857118402281458
415,672.66,271.1,67.8,700,30.59,1,Apollo,1000,4.0,2500,673.06,282.8,1.0,0.39999999999997726,0.0014754703061600047,5.288675765399921
416,673.06,282.8,66.9,593,23.67,1,Apollo,1000,4.0,2500,674.61,331.6,1.0,1.5500000000000682,0.005480905233380722,19.902263083452077
417,674.61,331.6,65.4,768,23.44,1,Apollo,1000,4.0,2500,675.06,423.4,1.0,0.4499999999999318,0.0013570566948128218,5.1926417370317814
418,675.06,423.4,66.5,720,19.85,1,Apollo,1000,4.0,2500,676.7,421.7,1.0,1.6400000000001,0.0038734057628722254,16.243514407180964
419,676.7,421.7,74.3,614,13.87,1,Apollo,1000,4.0,2500,677.16,411.2,1.0,0.4599999999999227,0.0010908228598527927,4.5670571496316725
420,677.16,411.2,64.5,678,27.76,1,Apollo,1000,4.0,2500,678.53,442.3,1.0,1.3700000000000045,0.0033317120622568205,13.80928015564207
421,678.53,442.3,57.1,824,33.14,1,Apollo,1000,4.0,2500,679.14,336.4,1.0,0.6100000000000136,0.0013791544200769017,5.887886050192309
422,679.14,336.4,61.4,578,28.79,1,Apollo,1000,4.0,2500,680.89,532.0,1.0,1.75,0.005202140309155767,20.005350772889418
423,680.89,532.0,61.7,657,30.57,1,Apollo,1000,4.0,2500,681.05,489.9,1.0,0.15999999999996817,0.00030075187969918826,1.3918796992478433
424,681.05,489.9,67.3,808,28.86,1,Apollo,1000,4.0,2500,682.74,493.9,1.0,1.6900000000000546,0.003449683608899887,15.384209022249935
425,682.74,493.9,68.5,757,31.43,1,Apollo,1000,4.0,2500,683.15,524.8,1.0,0.40999999999996817,0.0008301275561853981,3.715318890463368
426,683.15,524.8,60.4,591,33.59,1,Apollo,1000,4.0,2500,685.2,413.8,1.0,2.050000000000068,0.00390625000000013,17.9656250000006
427,685.2,413.8,69.0,672,28.04,1,Apollo,1000,4.0,2500,686.59,554.9,1.0,1.3899999999999864,0.003359110681488609,13.957776703721468
428,686.59,554.9,72.8,560,18.58,1,Apollo,1000,4.0,2500,687.14,353.8,1.0,0.5499999999999545,0.0009911695801044413,4.677923950260921
429,687.14,353.8,69.1,849,26.76,1,Apollo,1000,4.0,2500,688.54,342.8,1.0,1.3999999999999773,0.003957037874505306,15.492594686263173
430,688.54,342.8,63.0,524,32.03,1,Apollo,1000,4.0,2500,689.05,380.3,1.0,0.5099999999999909,0.0014877479579929723,5.759369894982394
431,689.05,380.3,63.6,718,28.12,1,Apollo,1000,4.0,2500,691.01,363.5,1.0,1.9600000000000364,0.005153825926899911,20.72456481724992
432,691.01,363.5,59.8,686,33.76,1,Apollo,1000,4.0,2500,692.55,329.4,1.0,1.5399999999999636,0.004236588720770189,16.751471801925327
433,692.55,329.4,59.5,673,33.48,1,Apollo,1000,4.0,2500,693.06,340.9,1.0,0.5099999999999909,0.0015482695810564388,5.91067395264106
434,693.06,340.9,60.2,610,35.61,1,Apollo,1000,4.0,2500,695.09,375.8,1.0,2.0300000000000864,0.0059548254620125736,23.00706365503178
435,695.09,375.8,62.8,798,33.89,1,Apollo,1000,4.0,2500,696.56,418.9,1.0,1.4699999999999136,0.003911655135710255,15.65913783927529
436,696.56,418.9,63.8,743,32.77,1,Apollo,1000,4.0,2500,697.12,471.9,1.0,0.5600000000000591,0.0013368345667225093,5.58208641680651
437,697.12,471.9,62.9,705,33.69,1,Apollo,1000,4.0,2500,698.68,504.5,1.0,1.5599999999999454,0.0033057851239668267,14.504462809916848
438,698.68,504.5,56.7,728,31.31,1,Apollo,1000,4.0,2500,699.14,544.7,1.0,0.4600000000000364,0.0009117938553023516,4.119484638256024
439,699.14,544.7,61.1,770,29.19,1,Apollo,1000,4.0,2500,700.52,427.6,1.0,1.3799999999999955,0.0025335046814760334,11.853761703690065
440,700.52,427.6,60.4,791,37.36,1,Apollo,1000,4.0,2500,701.14,424.4,1.0,0.6200000000000045,0.0014499532273152585,6.1048830682881645
441,701.14,424.4,61.9,816,30.99,1,Apollo,1000,4.0,2500,702.83,480.5,1.0,1.6900000000000546,0.003982092365692871,16.715230914232396
442,702.83,480.5,56.1,733,30.71,1,Apollo,1000,4.0,2500,703.0,470.4,1.0,0.16999999999995907,0.00035379812695100744,1.564495317377355
443,703.0,470.4,61.3,780,33.25,1,Apollo,1000,4.0,2500,705.04,382.5,1.0,2.0399999999999636,0.004336734693877474,19.00183673469354
444,705.04,382.5,54.4,804,30.22,1,Apollo,1000,4.0,2500,706.6,389.3,1.0,1.5600000000000591,0.004078431372549174,16.436078431373172
445,706.6,389.3,62.7,746,38.55,1,Apollo,1000,4.0,2500,708.52,389.7,1.0,1.919999999999959,0.004931929103519032,20.009822758797416
446,708.52,389.7,61.6,718,28.59,1,Apollo,1000,4.0,2500,709.13,469.8,1.0,0.6100000000000136,0.00156530664613809,6.353266615345279
447,709.13,469.8,58.0,844,30.72,1,Apollo,1000,4.0,2500,710.64,414.1,1.0,1.509999999999991,0.0032141336739037693,14.075334184759386
448,710.64,414.1,51.8,819,34.01,1,Apollo,1000,4.0,2500,711.36,437.0,1.0,0.7200000000000273,0.0017387104564115608,7.226776141029011
449,711.36,437.0,60.3,793,33.89,1,Apollo,1000,4.0,2500,712.67,384.6,1.0,1.3099999999999454,0.0029977116704804243,12.734279176200843
450,712.67,384.6,62.1,812,38.4,1,Apollo,1000,4.0,2500,714.56,391.4,1.0,1.8899999999999864,0.004914196567862679,19.845491419656643
451,714.56,391.4,53.8,881,35.53,1,Apollo,1000,4.0,2500,716.51,368.9,1.0,1.9500000000000455,0.004982115482882079,20.25528870720538
452,716.51,368.9,58.8,710,39.61,1,Apollo,1000,4.0,2500,717.17,363.2,1.0,0.6599999999999682,0.0017891027378692552,7.112756844673011
453,717.17,363.2,55.7,829,30.8,1,Apollo,1000,4.0,2500,718.5,387.7,1.0,1.330000000000041,0.0036618942731278664,14.47473568281983
454,718.5,387.7,58.9,804,36.6,1,Apollo,1000,4.0,2500,721.11,362.4,1.0,2.6100000000000136,0.0067320092855300846,27.270023213825265
455,721.11,362.4,63.0,801,30.42,1,Apollo,1000,4.0,2500,723.07,273.5,1.0,1.9600000000000364,0.005408388520971403,21.360971302428652
456,723.07,273.5,80.5,225,14.24,1,Apollo,1000,4.0,2500,724.65,464.2,1.0,1.5799999999999272,0.005776965265082001,20.76241316270471
457,724.65,464.2,68.1,641,23.3,1,Apollo,1000,4.0,2500,725.09,501.7,1.0,0.44000000000005457,0.0009478672985783167,4.12966824644601
458,725.09,501.7,71.1,672,25.26,1,Apollo,1000,4.0,2500,726.61,530.9,1.0,1.5199999999999818,0.0030296990233206734,13.654247558301611
459,726.61,530.9,64.4,685,30.39,1,Apollo,1000,4.0,2500,727.07,545.9,1.0,0.4600000000000364,0.0008664531926917242,4.006132981729456
460,727.07,545.9,68.9,755,27.94,1,Apollo,1000,4.0,2500,728.7,490.7,1.0,1.6299999999999955,0.0029858948525370863,13.984737131342698
461,728.7,490.7,67.0,823,31.03,1,Apollo,1000,4.0,2500,729.23,501.4,1.0,0.5299999999999727,0.0010800896678214238,4.82022416955345
462,729.23,501.4,71.0,669,22.68,1,Apollo,1000,4.0,2500,730.71,544.9,1.0,1.4800000000000182,0.0029517351416035466,13.29933785400894
463,730.71,544.9,63.8,686,28.26,1,Apollo,1000,4.0,2500,731.18,583.1,1.0,0.4699999999999136,0.0008625435859789202,4.036358964946955
464,731.18,583.1,60.0,795,32.64,1,Apollo,1000,4.0,2500,732.78,348.2,1.0,1.6000000000000227,0.0027439547247470808,13.259886811867794
465,732.78,348.2,60.2,558,32.86,1,Apollo,1000,4.0,2500,733.14,359.4,1.0,0.36000000000001364,0.0010338885697875177,4.024721424468849
466,733.14,359.4,54.7,760,35.6,1,Apollo,1000,4.0,2500,734.54,330.7,1.0,1.3999999999999773,0.0038953811908736154,15.338452977183948
467,734.54,330.7,63.5,810,32.49,1,Apollo,1000,4.0,2500,735.16,418.5,1.0,0.6200000000000045,0.0018748110069549578,7.167027517387413
468,735.16,418.5,57.5,728,36.52,1,Apollo,1000,4.0,2500,736.93,537.9,1.0,1.7699999999999818,0.004229390681003541,17.653476702508783
469,736.93,537.9,67.5,810,34.89,1,Apollo,1000,4.0,2500,737.15,549.9,1.0,0.22000000000002728,0.0004089979550102757,1.9024948875257983
470,737.15,549.9,63.0,740,29.19,1,Apollo,1000,4.0,2500,738.71,511.2,1.0,1.5600000000000591,0.002836879432624221,13.332198581560789
471,738.71,511.2,66.4,688,25.76,1,Apollo,1000,4.0,2500,739.2,588.5,1.0,0.4900000000000091,0.0009585289514867157,4.3563223787168255
472,739.2,588.5,67.9,704,24.8,1,Apollo,1000,4.0,2500,740.64,519.6,1.0,1.4399999999999409,0.002446898895496926,11.877247238742079
473,740.64,519.6,66.8,702,18.95,1,Apollo,1000,4.0,2500,741.13,526.0,1.0,0.4900000000000091,0.0009430331023864686,4.317582755966208
474,741.13,526.0,70.0,622,27.36,1,Apollo,1000,4.0,2500,742.95,528.2,1.0,1.82000000000005,0.0034600760456274717,15.93019011406888
475,742.95,528.2,63.9,716,29.2,1,Apollo,1000,4.0,2500,743.19,547.5,1.0,0.2400000000000091,0.0004543733434305359,2.095933358576376
476,743.19,547.5,61.6,844,30.86,1,Apollo,1000,4.0,2500,744.5,495.7,1.0,1.3099999999999454,0.002392694063926841,11.221735159816884
477,744.5,495.7,68.0,732,40.12,1,Apollo,1000,4.0,2500,745.12,349.4,1.0,0.6200000000000045,0.0012507565059511894,5.606891264877992
478,745.12,349.4,63.5,679,33.27,1,Apollo,1000,4.0,2500,746.67,446.5,1.0,1.5499999999999545,0.004436176302232269,17.29044075558049
479,746.67,446.5,59.3,838,36.24,1,Apollo,1000,4.0,2500,747.01,457.3,1.0,0.34000000000003183,0.0007614781634939123,3.2636954087349084
480,747.01,457.3,63.8,820,31.71,1,Apollo,1000,4.0,2500,748.55,424.9,1.0,1.5399999999999636,0.003367592390115818,14.578980975289399
481,748.55,424.9,61.1,794,37.71,1,Apollo,1000,4.0,2500,749.11,399.7,1.0,0.5600000000000591,0.0013179571663922314,5.534892915980815
482,749.11,399.7,63.4,680,40.19,1,Apollo,1000,4.0,2500,750.56,418.3,1.0,1.4499999999999318,0.0036277207905927745,14.869301976481664
483,750.56,418.3,61.6,844,33.92,1,Apollo,1000,4.0,2500,751.15,347.1,1.0,0.5900000000000318,0.0014104709538609417,5.886177384652481
484,751.15,347.1,62.7,658,30.32,1,Apollo,1000,4.0,2500,752.58,355.7,1.0,1.4300000000000637,0.004119850187266101,16.019625468165508
485,752.58,355.7,62.8,772,35.8,1,Apollo,1000,4.0,2500,753.1,358.8,1.0,0.5199999999999818,0.0014619061006465612,5.734765251616331
486,753.1,358.8,63.2,666,31.22,1,Apollo,1000,4.0,2500,754.67,574.0,1.0,1.5699999999999363,0.004375696767000937,17.21924191750209
487,754.67,574.0,65.3,704,24.93,1,Apollo,1000,4.0,2500,755.4,511.3,1.0,0.7300000000000182,0.0012717770034843523,6.099442508710954
488,755.4,511.3,66.9,755,32.17,1,Apollo,1000,4.0,2500,756.11,438.0,1.0,0.7100000000000364,0.001388617250146756,6.311543125367035
489,756.11,438.0,59.9,829,38.08,1,Apollo,1000,4.0,2500,758.56,610.0,1.0,2.449999999999932,0.005593607305935918,23.78401826483952
490,758.56,610.0,64.0,803,27.67,1,Apollo,1000,4.0,2500,761.21,340.0,1.0,2.650000000000091,0.0043442622950821165,21.460655737705657
491,761.21,340.0,60.1,826,29.56,1,Apollo,1000,4.0,2500,762.54,376.4,1.0,1.3299999999999272,0.003911764705882139,15.099411764705057
492,762.54,376.4,56.7,772,33.77,1,Apollo,1000,4.0,2500,763.08,415.1,1.0,0.5400000000000773,0.0014346439957494083,5.74660998937383
493,763.08,415.1,60.4,780,32.58,1,Apollo,1000,4.0,2500,766.56,382.1,1.0,3.4799999999999045,0.008383522042881003,34.878805107202126
494,766.56,382.1,56.7,655,35.86,1,Apollo,1000,4.0,2500,767.09,432.9,1.0,0.5300000000000864,0.00138707144726534,5.587678618163695
495,767.09,432.9,67.1,746,25.42,1,Apollo,1000,4.0,2500,768.67,470.0,1.0,1.5799999999999272,0.0036498036498034824,15.444509124508414
496,768.67,470.0,61.3,878,35.25,1,Apollo,1000,4.0,2500,769.39,498.4,1.0,0.7200000000000273,0.0015319148936170793,6.709787234042807
497,769.39,498.4,61.5,914,30.97,1,Apollo,1000,4.0,2500,770.62,502.6,1.0,1.2300000000000182,0.002467897271268094,11.089743178170309
498,770.62,502.6,58.8,902,31.12,1,Apollo,1000,4.0,2500,771.06,464.9,1.0,0.4399999999999409,0.0008754476721049361,3.948619180262104
499,771.06,464.9,59.8,845,31.48,1,Apollo,1000,4.0,2500,772.68,488.0,1.0,1.6200000000000045,0.0034846203484620447,15.19155087115513
500,772.68,488.0,67.5,767,38.59,1,Apollo,1000,4.0,2500,773.06,528.3,1.0,0.37999999999999545,0.0007786885245901547,3.4667213114753688
501,773.06,528.3,62.3,873,35.76,1,Apollo,1000,4.0,2500,774.59,487.3,1.0,1.5300000000000864,0.002896081771720777,13.36020442930229
502,774.59,487.3,60.9,875,35.9,1,Apollo,1000,4.0,2500,775.05,525.3,1.0,0.4599999999999227,0.0009439770162116205,4.199942540528742
503,775.05,525.3,57.4,778,29.94,1,Apollo,1000,4.0,2500,776.7,506.7,1.0,1.650000000000091,0.003141062250142949,14.452655625357735
504,776.7,506.7,67.8,827,28.11,1,Apollo,1000,4.0,2500,777.2,470.6,1.0,0.5,0.0009867771857114663,4.466942964278665
505,777.2,470.6,51.7,840,35.92,1,Apollo,1000,4.0,2500,778.72,521.8,1.0,1.5199999999999818,0.003229919252018661,14.15479813004658
506,778.72,521.8,58.6,937,35.34,1,Apollo,1000,4.0,2500,779.16,489.8,1.0,0.4399999999999409,0.0008432349559216959,3.8680873898040034
507,779.16,489.8,54.3,831,36.66,1,Apollo,1000,4.0,2500,782.62,462.6,1.0,3.4600000000000364,0.007064107799101748,31.500269497754516
508,782.62,462.6,57.7,860,30.62,1,Apollo,1000,4.0,2500,783.04,500.3,1.0,0.4199999999999591,0.0009079118028533485,3.949779507133208
509,783.04,500.3,51.9,817,37.35,1,Apollo,1000,4.0,2500,784.77,438.1,1.0,1.7300000000000182,0.0034579252448531245,15.564813112132883
510,784.77,438.1,57.7,798,38.04,1,Apollo,1000,4.0,2500,785.38,427.4,1.0,0.6100000000000136,0.001392376169824272,5.920940424560735
511,785.38,427.4,52.9,777,37.35,1,Apollo,1000,4.0,2500,786.62,463.1,1.0,1.240000000000009,0.0029012634534394226,12.213158633598592
512,786.62,463.1,53.7,778,36.29,1,Apollo,1000,4.0,2500,790.67,441.4,1.0,4.0499999999999545,0.008745411358237863,38.063528395594474
513,790.67,441.4,59.5,804,31.99,1,Apollo,1000,4.0,2500,792.63,439.7,1.0,1.9600000000000364,0.004440416855459983,18.941042138650104
514,792.63,439.7,54.0,839,34.76,1,Apollo,1000,4.0,2500,793.2,467.7,1.0,0.57000000000005,0.001296338412554128,5.5208460313855205
515,793.2,467.7,56.8,849,35.32,1,Apollo,1000,4.0,2500,794.58,435.4,1.0,1.3799999999999955,0.0029506093649775402,12.896523412443832
516,794.58,435.4,58.7,839,33.71,1,Apollo,1000,4.0,2500,795.0,495.6,1.0,0.4199999999999591,0.0009646302250802918,4.091575562700566
517,795.0,495.6,54.7,843,35.3,1,Apollo,1000,4.0,2500,797.21,499.7,1.0,2.2100000000000364,0.004459241323648176,19.988103309120586
518,797.21,499.7,51.5,712,32.03,1,Apollo,1000,4.0,2500,801.1,424.3,1.0,3.8899999999999864,0.007784670802481461,35.0216770062036
519,801.1,424.3,55.4,900,35.71,1,Apollo,1000,4.0,2500,802.67,548.7,1.0,1.5699999999999363,0.003700212114070083,15.530530285174953
520,802.67,548.7,56.5,863,33.41,1,Apollo,1000,4.0,2500,804.67,526.4,1.0,2.0,0.0036449790413705116,17.11244760342628
521,804.67,526.4,56.6,776,34.22,1,Apollo,1000,4.0,2500,805.17,608.2,1.0,0.5,0.0009498480243161094,4.374620060790273
522,805.17,608.2,57.2,876,32.78,1,Apollo,1000,4.0,2500,806.95,558.1,1.0,1.7800000000000864,0.0029266688589281264,14.436672147320662
523,806.95,558.1,57.4,883,34.26,1,Apollo,1000,4.0,2500,807.21,598.8,1.0,0.2599999999999909,0.00046586633219851436,2.2046658304962494
524,807.21,598.8,58.0,732,32.51,1,Apollo,1000,4.0,2500,808.95,613.8,1.0,1.740000000000009,0.0029058116232465086,14.224529058116307
525,808.95,613.8,60.0,797,30.93,1,Apollo,1000,4.0,2500,809.2,612.1,1.0,0.25,0.00040729879439556864,2.0182469859889216
526,809.2,612.1,60.0,810,29.65,1,Apollo,1000,4.0,2500,810.91,557.1,1.0,1.7099999999999227,0.0027936611664759396,13.82415291618954
527,810.91,557.1,55.6,875,32.69,1,Apollo,1000,4.0,2500,812.61,512.3,1.0,1.7000000000000455,0.00305151678334239,14.428791958356157
528,812.61,512.3,59.1,829,31.19,1,Apollo,1000,4.0,2500,813.37,548.3,1.0,0.7599999999999909,0.0014835057583447021,6.748764395861719
529,813.37,548.3,57.6,836,32.31,1,Apollo,1000,4.0,2500,814.67,609.5,1.0,1.2999999999999545,0.0023709648002917284,11.127412000729139
530,814.67,609.5,59.1,883,29.34,1,Apollo,1000,4.0,2500,816.66,585.1,1.0,1.990000000000009,0.00326497128794095,16.12242821985241
531,816.66,585.1,53.6,967,36.01,1,Apollo,1000,4.0,2500,818.52,178.7,1.0,1.8600000000000136,0.003178943770295699,15.387359425739302
532,818.52,178.7,80.6,398,19.88,1,Apollo,1000,4.0,2500,819.26,305.5,1.0,0.7400000000000091,0.004141018466704024,13.312546166760097
533,819.26,305.5,76.8,776,19.94,1,Apollo,1000,4.0,2500,820.73,531.2,1.0,1.4700000000000273,0.00481178396072022,17.90945990180066
534,820.73,531.2,75.3,668,17.39,1,Apollo,1000,4.0,2500,821.24,689.4,1.0,0.5099999999999909,0.000960090361445766,4.440225903614379
535,821.24,689.4,72.8,796,23.89,1,Apollo,1000,4.0,2500,822.51,554.3,1.0,1.2699999999999818,0.0018421816071946357,9.685454017986515
536,822.51,554.3,69.3,822,26.49,1,Apollo,1000,4.0,2500,823.01,118.4,1.0,0.5,0.0009020386072523905,4.255096518130976
537,823.01,118.4,92.1,194,6.88,1,Apollo,1000,4.0,2500,824.54,107.5,1.0,1.5299999999999727,0.012922297297297065,38.42574324324255
538,824.54,107.5,91.8,333,9.84,1,Apollo,1000,4.0,2500,825.05,104.3,1.0,0.5099999999999909,0.004744186046511544,13.900465116278824
539,825.05,104.3,92.1,355,8.98,1,Apollo,1000,4.0,2500,826.54,123.4,1.0,1.490000000000009,0.014285714285714372,41.674285714285965
540,826.54,123.4,91.8,165,8.04,1,Apollo,1000,4.0,2500,827.03,119.3,1.0,0.4900000000000091,0.003970826580226978,11.887066450567481
541,827.03,119.3,92.1,329,8.72,1,Apollo,1000,4.0,2500,828.59,117.5,1.0,1.5600000000000591,0.013076278290025643,38.930695725064346
542,828.59,117.5,91.8,227,9.17,1,Apollo,1000,4.0,2500,829.04,115.2,1.0,0.4499999999999318,0.0038297872340419723,11.374468085104658
543,829.04,115.2,90.6,291,9.23,1,Apollo,1000,4.0,2500,830.52,108.8,1.0,1.4800000000000182,0.01284722222222238,38.03805555555602
544,830.52,108.8,89.7,252,9.12,1,Apollo,1000,4.0,2500,831.01,110.9,1.0,0.4900000000000091,0.004503676470588319,13.219191176470835
545,831.01,110.9,90.9,360,9.28,1,Apollo,1000,4.0,2500,832.51,113.8,1.0,1.5,0.013525698827772768,39.81424706943192
546,832.51,113.8,89.9,274,9.72,1,Apollo,1000,4.0,2500,833.07,106.5,1.0,0.5600000000000591,0.004920913884007549,14.54228471001911
547,833.07,106.5,90.5,339,9.58,1,Apollo,1000,4.0,2500,834.5,84.6,1.0,1.42999999999995,0.013427230046947887,39.288075117369516
548,834.5,84.6,86.1,330,13.42,1,Apollo,1000,4.0,2500,835.0,88.5,1.0,0.5,0.0059101654846335705,16.775413711583926
549,835.0,88.5,85.9,377,13.52,1,Apollo,1000,4.0,2500,836.5,114.2,1.0,1.5,0.01694915254237288,48.3728813559322
550,836.5,114.2,82.1,387,16.53,1,Apollo,1000,4.0,2500,837.03,120.5,1.0,0.5299999999999727,0.004640980735551425,13.722451838878452
551,837.03,120.5,83.2,316,15.96,1,Apollo,1000,4.0,2500,838.52,124.1,1.0,1.490000000000009,0.012365145228215843,36.872863070539644
552,838.52,124.1,85.5,354,17.47,1,Apollo,1000,4.0,2500,839.01,124.4,1.0,0.4900000000000091,0.003948428686543184,11.831071716357997
553,839.01,124.4,83.7,491,15.88,1,Apollo,1000,4.0,2500,840.55,165.1,1.0,1.5399999999999636,0.012379421221864658,37.1085530546615
554,840.55,165.1,65.2,739,27.57,1,Apollo,1000,4.0,2500,841.13,462.2,1.0,0.5800000000000409,0.0035130224106604538,11.102556026651298
555,841.13,462.2,61.7,775,35.98,1,Apollo,1000,4.0,2500,842.81,429.4,1.0,1.67999999999995,0.0036347901341409567,15.806975335352192
556,842.81,429.4,67.8,785,33.85,1,Apollo,1000,4.0,2500,843.01,493.0,1.0,0.20000000000004547,0.0004657661853750477,1.9644154634378013
557,843.01,493.0,68.9,761,32.26,1,Apollo,1000,4.0,2500,844.52,465.6,1.0,1.509999999999991,0.003062880324543592,13.697200811358943
558,844.52,465.6,73.4,780,26.75,1,Apollo,1000,4.0,2500,845.14,507.7,1.0,0.6200000000000045,0.0013316151202749237,5.809037800687328
559,845.14,507.7,76.6,491,22.56,1,Apollo,1000,4.0,2500,846.6,460.7,1.0,1.4600000000000364,0.0028757140043333394,13.029285010833494
560,846.6,460.7,65.0,740,33.81,1,Apollo,1000,4.0,2500,847.04,473.5,1.0,0.4399999999999409,0.0009550683742130256,4.147670935532327
561,847.04,473.5,66.2,683,36.16,1,Apollo,1000,4.0,2500,848.52,501.9,1.0,1.4800000000000182,0.003125659978880714,13.734149947201857
562,848.52,501.9,71.6,747,33.72,1,Apollo,1000,4.0,2500,849.16,489.9,1.0,0.6399999999999864,0.0012751544132297,5.747886033074195
563,849.16,489.9,74.1,726,27.02,1,Apollo,1000,4.0,2500,850.63,501.1,1.0,1.4700000000000273,0.0030006123698714583,13.381530924678755
564,850.63,501.1,75.2,665,25.15,1,Apollo,1000,4.0,2500,851.02,489.3,1.0,0.38999999999998636,0.0007782877669127645,3.5057194172818567
565,851.02,489.3,77.2,509,21.61,1,Apollo,1000,4.0,2500,852.54,363.9,1.0,1.5199999999999818,0.0031064786429592928,13.84619660739816
566,852.54,363.9,65.2,668,33.29,1,Apollo,1000,4.0,2500,853.07,376.2,1.0,0.5300000000000864,0.001456444078043656,5.761110195109486
567,853.07,376.2,63.7,776,31.77,1,Apollo,1000,4.0,2500,854.63,380.8,1.0,1.5599999999999454,0.004146730462519791,16.60682615629926
568,854.63,380.8,62.2,699,36.38,1,Apollo,1000,4.0,2500,855.16,389.6,1.0,0.5299999999999727,0.001391806722689004,5.5995168067224
569,855.16,389.6,62.0,814,36.1,1,Apollo,1000,4.0,2500,856.51,386.2,1.0,1.3500000000000227,0.003465092402464124,14.062731006160401
570,856.51,386.2,59.7,681,38.44,1,Apollo,1000,4.0,2500,857.34,347.5,1.0,0.8300000000000409,0.0021491455204558285,8.692863801139735
571,857.34,347.5,68.7,723,33.18,1,Apollo,1000,4.0,2500,858.68,531.3,1.0,1.3399999999999181,0.0038561151079134336,15.000287769783256
572,858.68,531.3,75.1,672,24.52,1,Apollo,1000,4.0,2500,859.1,526.9,1.0,0.42000000000007276,0.0007905138339922318,3.6562845849808703
573,859.1,526.9,74.5,629,23.24,1,Apollo,1000,4.0,2500,860.57,473.6,1.0,1.4700000000000273,0.002789903207439794,12.854758018599593
574,860.57,473.6,75.4,606,22.56,1,Apollo,1000,4.0,2500,861.2,465.1,1.0,0.6299999999999955,0.0013302364864864768,5.845591216216174
575,861.2,465.1,74.0,655,23.58,1,Apollo,1000,4.0,2500,862.66,506.3,1.0,1.4599999999999227,0.0031391098688452433,13.687774672112798
576,862.66,506.3,66.0,767,31.19,1,Apollo,1000,4.0,2500,863.33,465.5,1.0,0.6700000000000728,0.0013233260912503904,5.988315228126266
577,863.33,465.5,67.2,748,30.17,1,Apollo,1000,4.0,2500,864.66,445.5,1.0,1.3299999999999272,0.0028571428571427006,12.46285714285646
578,864.66,445.5,61.6,763,34.08,1,Apollo,1000,4.0,2500,865.03,414.5,1.0,0.37000000000000455,0.0008305274971941741,3.5563187429854537
579,865.03,414.5,62.5,790,34.79,1,Apollo,1000,4.0,2500,866.57,423.9,1.0,1.5400000000000773,0.0037153196622438534,15.448299155609943
580,866.57,423.9,62.6,736,35.54,1,Apollo,1000,4.0,2500,867.18,469.2,1.0,0.6099999999999,0.0014390186364706297,6.037546591176174
581,867.18,469.2,69.0,769,29.13,1,Apollo,1000,4.0,2500,868.87,481.1,1.0,1.6900000000000546,0.0036018755328219407,15.76468883205507
582,868.87,481.1,65.9,736,35.26,1,Apollo,1000,4.0,2500,869.07,503.2,1.0,0.20000000000004547,0.00041571398877581677,1.8392849719397237
583,869.07,503.2,62.4,801,36.0,1,Apollo,1000,4.0,2500,870.64,438.2,1.0,1.5699999999999363,0.0031200317965022584,14.080079491255391
584,870.64,438.2,62.3,848,36.07,1,Apollo,1000,4.0,2500,871.02,437.7,1.0,0.37999999999999545,0.0008671839342765756,3.6879598356914207
585,871.02,437.7,62.8,833,37.11,1,Apollo,1000,4.0,2500,872.03,430.7,1.0,1.009999999999991,0.002307516563856502,9.80879140964122
586,872.03,430.7,60.0,753,36.04,1,Apollo,1000,4.0,2500,874.6,509.2,1.0,2.57000000000005,0.005967030415602624,25.197576039006762
587,874.6,509.2,69.3,659,24.77,1,Apollo,1000,4.0,2500,875.02,509.1,1.0,0.4199999999999591,0.000824823252160171,3.742058130400264
588,875.02,509.1,65.2,731,29.98,1,Apollo,1000,4.0,2500,876.6,433.2,1.0,1.580000000000041,0.0031035160086427833,14.078790021607123
589,876.6,433.2,61.9,760,34.09,1,Apollo,1000,4.0,2500,877.02,458.3,1.0,0.4199999999999591,0.0009695290858724818,4.103822714681041
590,877.02,458.3,69.1,855,33.82,1,Apollo,1000,4.0,2500,878.56,497.0,1.0,1.5399999999999636,0.0033602443814094774,14.560610953523549
591,878.56,497.0,72.9,649,24.24,1,Apollo,1000,4.0,2500,879.03,483.1,1.0,0.4700000000000273,0.0009456740442656485,4.2441851106642305
592,879.03,483.1,72.1,576,24.21,1,Apollo,1000,4.0,2500,880.54,516.6,1.0,1.509999999999991,0.003125646864003293,13.854117160008197
593,880.54,516.6,69.1,735,25.89,1,Apollo,1000,4.0,2500,881.18,510.0,1.0,0.6399999999999864,0.001238869531552432,5.657173828881025
594,881.18,510.0,70.9,644,26.06,1,Apollo,1000,4.0,2500,882.68,515.1,1.0,1.5,0.0029411764705882353,13.352941176470587
595,882.68,515.1,71.0,705,28.89,1,Apollo,1000,4.0,2500,883.11,475.6,1.0,0.43000000000006366,0.0008347893612891936,3.8069734032232385
596,883.11,475.6,71.3,637,23.81,1,Apollo,1000,4.0,2500,884.64,455.4,1.0,1.5299999999999727,0.0032169890664423308,14.162472666105717
597,884.64,455.4,69.8,628,26.89,1,Apollo,1000,4.0,2500,885.08,496.8,1.0,0.44000000000005457,0.0009661835748793469,4.175458937198586
598,885.08,496.8,72.4,710,26.45,1,Apollo,1000,4.0,2500,886.58,463.2,1.0,1.5,0.0030193236714975845,13.548309178743962
599,886.58,463.2,59.0,770,36.37,1,Apollo,1000,4.0,2500,887.08,425.0,1.0,0.5,0.001079447322970639,4.698618307426598
600,887.08,425.0,61.1,788,37.25,1,Apollo,1000,4.0,2500,890.5,369.7,1.0,3.419999999999959,0.008047058823529315,33.797647058823124
601,890.5,369.7,61.9,838,34.62,1,Apollo,1000,4.0,2500,891.07,369.6,1.0,0.57000000000005,0.0015417906410604544,6.134476602651336
602,891.07,369.6,60.0,807,35.83,1,Apollo,1000,4.0,2500,892.88,390.5,1.0,1.8099999999999454,0.004897186147185999,19.48296536796478
603,892.88,390.5,64.0,774,28.09,1,Apollo,1000,4.0,2500,893.08,415.7,1.0,0.20000000000004547,0.000512163892445699,2.0804097311144294
604,893.08,415.7,59.1,835,34.49,1,Apollo,1000,4.0,2500,894.6,389.3,1.0,1.5199999999999818,0.0036564830406542745,15.221207601635614
605,894.6,389.3,59.6,829,36.77,1,Apollo,1000,4.0,2500,895.38,412.6,1.0,0.7799999999999727,0.002003596198304579,8.12899049576134
606,895.38,412.6,61.9,779,34.94,1,Apollo,1000,4.0,2500,896.53,408.8,1.0,1.1499999999999773,0.00278720310227818,11.568007755695358
607,896.53,408.8,59.0,729,36.18,1,Apollo,1000,4.0,2500,897.08,412.5,1.0,0.5500000000000682,0.0013454011741684641,5.563502935421433
608,897.08,412.5,61.3,826,34.37,1,Apollo,1000,4.0,2500,898.6,387.9,1.0,1.5199999999999818,0.0036848484848484406,15.292121212121028
609,898.6,387.9,59.2,852,34.48,1,Apollo,1000,4.0,2500,899.23,505.8,1.0,0.6299999999999955,0.00162412993039442,6.580324825986032
610,899.23,505.8,63.7,830,31.81,1,Apollo,1000,4.0,2500,900.71,470.6,1.0,1.4800000000000182,0.002926057730328229,13.235144325820645
611,900.71,470.6,68.5,697,28.98,1,Apollo,1000,4.0,2500,901.14,511.5,1.0,0.42999999999995,0.000913727156820973,4.004317892052232
612,901.14,511.5,65.9,762,28.88,1,Apollo,1000,4.0,2500,902.67,493.2,1.0,1.5299999999999727,0.0029912023460410024,13.598005865102397
613,902.67,493.2,69.0,846,28.19,1,Apollo,1000,4.0,2500,903.13,519.1,1.0,0.4600000000000364,0.0009326845093269189,4.171711273317443
614,903.13,519.1,77.2,598,21.97,1,Apollo,1000,4.0,2500,904.62,469.3,1.0,1.490000000000009,0.0028703525332306086,13.135881333076558
615,904.62,469.3,60.6,718,33.02,1,Apollo,1000,4.0,2500,905.03,499.6,1.0,0.40999999999996817,0.0008736415938631326,3.8241039846577043
616,905.03,499.6,63.4,803,32.03,1,Apollo,1000,4.0,2500,906.52,476.8,1.0,1.490000000000009,0.0029823859087269996,13.415964771817535
617,906.52,476.8,73.9,656,20.29,1,Apollo,1000,4.0,2500,907.17,480.8,1.0,0.6499999999999773,0.0013632550335569993,6.008137583892408
618,907.17,480.8,75.0,654,20.54,1,Apollo,1000,4.0,2500,908.5,481.3,1.0,1.330000000000041,0.0027662229617305347,12.2355574043265
619,908.5,481.3,76.9,637,17.48,1,Apollo,1000,4.0,2500,909.13,508.6,1.0,0.6299999999999955,0.0013089549137751827,5.792387284437938
620,909.13,508.6,69.0,794,26.38,1,Apollo,1000,4.0,2500,910.67,489.9,1.0,1.5399999999999636,0.003027919779787581,13.729799449468807
621,910.67,489.9,73.3,669,21.55,1,Apollo,1000,4.0,2500,911.1,474.0,1.0,0.43000000000006366,0.0008777301490101321,3.914325372525585
622,911.1,474.0,61.1,691,33.24,1,Apollo,1000,4.0,2500,912.55,497.6,1.0,1.4499999999999318,0.003059071729957662,13.447679324893883
623,912.55,497.6,99.1,124,0.12,1,Apollo,1000,4.0,2500,913.01,175.0,1.0,0.4600000000000364,0.000924437299035443,4.1510932475887525
624,913.01,175.0,100.9,226,0.56,1,Apollo,1000,4.0,2500,914.53,365.5,1.0,1.5199999999999818,0.008685714285714182,27.794285714285383
625,914.53,365.5,71.2,651,29.99,1,Apollo,1000,4.0,2500,915.06,390.4,1.0,0.5299999999999727,0.00145006839945273,5.745170998631716
626,915.06,390.4,67.3,702,32.01,1,Apollo,1000,4.0,2500,916.66,489.3,1.0,1.6000000000000227,0.004098360655737763,16.6459016393445
627,916.66,489.3,70.9,821,30.31,1,Apollo,1000,4.0,2500,917.08,457.9,1.0,0.42000000000007276,0.000858369098712595,3.8259227467817785
628,917.08,457.9,71.2,741,29.91,1,Apollo,1000,4.0,2500,918.62,454.9,1.0,1.5399999999999636,0.0033631797335662013,14.567949333915358
629,918.62,454.9,74.8,724,27.51,1,Apollo,1000,4.0,2500,919.27,495.9,1.0,0.6499999999999773,0.0014288854693338697,6.172213673334584
630,919.27,495.9,76.5,614,25.65,1,Apollo,1000,4.0,2500,920.55,510.4,1.0,1.2799999999999727,0.002581165557572036,11.572913893929982
631,920.55,510.4,78.9,568,21.73,1,Apollo,1000,4.0,2500,921.19,478.2,1.0,0.6400000000001,0.0012539184952980017,5.694796238245404
632,921.19,478.2,71.3,670,27.8,1,Apollo,1000,4.0,2500,922.68,475.4,1.0,1.4899999999998954,0.003115851108322659,13.74962777080623
633,922.68,475.4,65.5,708,35.2,1,Apollo,1000,4.0,2500,923.09,425.4,1.0,0.41000000000008185,0.0008624316365167898,3.796079091292302
634,923.09,425.4,72.9,772,30.58,1,Apollo,1000,4.0,2500,924.85,519.9,1.0,1.759999999999991,0.004137282557592833,17.383206393982046
635,924.85,519.9,63.8,694,35.08,1,Apollo,1000,4.0,2500,925.06,473.4,1.0,0.2099999999999227,0.0004039238315059102,1.8498095787644662
636,925.06,473.4,64.6,728,34.86,1,Apollo,1000,4.0,2500,926.94,569.0,1.0,1.8800000000001091,0.003971271651880248,17.448179129701057
637,926.94,569.0,65.3,798,33.13,1,Apollo,1000,4.0,2500,927.18,571.3,1.0,0.2399999999998954,0.00042179261862899015,2.014481546572057
638,927.18,571.3,66.3,795,33.37,1,Apollo,1000,4.0,2500,928.62,537.0,1.0,1.4400000000000546,0.002520567127603807,12.061417819009735
639,928.62,537.0,71.4,592,27.58,1,Apollo,1000,4.0,2500,929.11,539.4,1.0,0.4900000000000091,0.0009124767225326054,4.24119180633155
640,929.11,539.4,67.1,721,32.15,1,Apollo,1000,4.0,2500,930.89,572.1,1.0,1.7799999999999727,0.0032999629217648732,15.369907304412074
641,930.89,572.1,74.2,695,26.84,1,Apollo,1000,4.0,2500,931.14,618.3,1.0,0.25,0.0004369865408145429,2.0924663520363573
642,931.14,618.3,70.5,733,28.03,1,Apollo,1000,4.0,2500,932.63,587.8,1.0,1.490000000000009,0.0024098334142002415,11.98458353550064
643,932.63,587.8,64.4,754,34.12,1,Apollo,1000,4.0,2500,933.09,585.4,1.0,0.4600000000000364,0.0007825791085403818,3.7964477713511
644,933.09,585.4,64.0,824,34.54,1,Apollo,1000,4.0,2500,934.53,582.3,1.0,1.4399999999999409,0.002459856508370244,11.909641270925373
645,934.53,582.3,65.9,870,35.4,1,Apollo,1000,4.0,2500,935.02,592.7,1.0,0.4900000000000091,0.0008414906405632992,4.063726601408284
646,935.02,592.7,69.3,857,34.22,1,Apollo,1000,4.0,2500,936.69,521.5,1.0,1.6700000000000728,0.002817614307406905,13.724035768517552
647,936.69,521.5,64.6,727,33.25,1,Apollo,1000,4.0,2500,937.15,529.9,1.0,0.4599999999999227,0.000882070949184895,4.045177372961929
648,937.15,529.9,66.8,848,33.87,1,Apollo,1000,4.0,2500,938.72,545.6,1.0,1.57000000000005,0.002962823174183903,13.687057935459958
649,938.72,545.6,67.9,749,32.33,1,Apollo,1000,4.0,2500,939.22,611.9,1.0,0.5,0.0009164222873900293,4.291055718475073
650,939.22,611.9,68.2,707,31.12,1,Apollo,1000,4.0,2500,940.94,541.7,1.0,1.7200000000000273,0.0028109168164733244,13.907292041183421
651,940.94,541.7,63.3,731,38.35,1,Apollo,1000,4.0,2500,941.18,566.7,1.0,0.2399999999998954,0.00044304965848236184,2.0676241462054863
652,941.18,566.7,65.0,792,32.85,1,Apollo,1000,4.0,2500,942.69,468.0,1.0,1.5100000000001046,0.0026645491441681744,12.701372860420854
653,942.69,468.0,67.0,770,31.27,1,Apollo,1000,4.0,2500,943.24,440.1,1.0,0.5499999999999545,0.001175213675213578,5.138034188033763
654,943.24,440.1,67.6,795,31.23,1,Apollo,1000,4.0,2500,944.5,417.8,1.0,1.259999999999991,0.002862985685071554,12.197464212678849
655,944.5,417.8,67.7,720,35.68,1,Apollo,1000,4.0,2500,945.02,419.4,1.0,0.5199999999999818,0.0012446146481569695,5.191536620392351
656,945.02,419.4,65.1,828,33.07,1,Apollo,1000,4.0,2500,946.56,363.9,1.0,1.5399999999999636,0.0036719122556031565,15.339780639007746
657,946.56,363.9,68.7,657,38.13,1,Apollo,1000,4.0,2500,947.47,500.5,1.0,0.9100000000000819,0.00250068700192383,9.891717504809904
658,947.47,500.5,64.5,797,34.46,1,Apollo,1000,4.0,2500,948.71,594.9,1.0,1.240000000000009,0.0024775224775224957,11.153806193806275
659,948.71,594.9,67.5,823,30.97,1,Apollo,1000,4.0,2500,949.23,614.6,1.0,0.5199999999999818,0.0008740964868044744,4.265241217011113
660,949.23,614.6,67.7,838,29.66,1,Apollo,1000,4.0,2500,950.71,592.4,1.0,1.4800000000000182,0.002408070289619294,11.940175724048308
661,950.71,592.4,65.2,709,31.16,1,Apollo,1000,4.0,2500,951.22,614.0,1.0,0.5099999999999909,0.0008609047940580536,4.192261985145098
662,951.22,614.0,64.9,785,32.85,1,Apollo,1000,4.0,2500,952.51,545.8,1.0,1.2899999999999636,0.0021009771986970093,10.412442996742378
663,952.51,545.8,73.4,750,24.89,1,Apollo,1000,4.0,2500,953.02,613.0,1.0,0.5099999999999909,0.0009344082081348314,4.3760205203370415
664,953.02,613.0,71.0,750,26.48,1,Apollo,1000,4.0,2500,954.58,563.7,1.0,1.5600000000000591,0.00254486133768362,12.602153344209286
665,954.58,563.7,70.9,702,26.03,1,Apollo,1000,4.0,2500,955.1,632.1,1.0,0.5199999999999818,0.0009224764945892881,4.386191236473147
666,955.1,632.1,60.5,828,31.33,1,Apollo,1000,4.0,2500,956.64,391.9,1.0,1.5399999999999636,0.002436323366555867,12.250808416389521
667,956.64,391.9,66.4,730,34.73,1,Apollo,1000,4.0,2500,957.19,397.4,1.0,0.5500000000000682,0.0014034192396021133,5.708548099005556
668,957.19,397.4,63.9,787,35.19,1,Apollo,1000,4.0,2500,958.5,286.2,1.0,1.3099999999999454,0.0032964267740310657,13.481066935077445
669,958.5,286.2,60.6,639,38.78,1,Apollo,1000,4.0,2500,959.0,175.6,1.0,0.5,0.0017470300489168414,6.367575122292103
670,959.0,175.6,60.8,596,35.89,1,Apollo,1000,4.0,2500,960.51,145.3,1.0,1.509999999999991,0.00859908883826874,27.537722095671814
671,960.51,145.3,61.1,679,35.72,1,Apollo,1000,4.0,2500,961.04,147.2,1.0,0.5299999999999727,0.0036476256022021517,11.23906400550527
672,961.04,147.2,61.3,624,35.98,1,Apollo,1000,4.0,2500,962.53,152.4,1.0,1.490000000000009,0.010122282608695715,31.265706521739325
673,962.53,152.4,62.9,810,36.68,1,Apollo,1000,4.0,2500,963.01,153.5,1.0,0.4800000000000182,0.003149606299212717,9.794015748031866
674,963.01,153.5,61.2,757,34.12,1,Apollo,1000,4.0,2500,964.52,144.6,1.0,1.509999999999991,0.00983713355048854,30.632833876221312
675,964.52,144.6,62.0,688,35.06,1,Apollo,1000,4.0,2500,965.03,144.6,1.0,0.5099999999999909,0.003526970954356784,10.857427385891924
676,965.03,144.6,60.9,683,35.71,1,Apollo,1000,4.0,2500,966.5,158.0,1.0,1.4700000000000273,0.01016597510373463,31.294937759336683
677,966.5,158.0,57.2,713,39.74,1,Apollo,1000,4.0,2500,967.01,160.6,1.0,0.5099999999999909,0.003227848101265765,10.109620253164376
678,967.01,160.6,56.2,622,39.46,1,Apollo,1000,4.0,2500,968.51,159.9,1.0,1.5,0.009339975093399752,29.34993773349938
679,968.51,159.9,57.5,726,39.42,1,Apollo,1000,4.0,2500,969.1,161.4,1.0,0.5900000000000318,0.0036898061288307177,11.584515322076921
680,969.1,161.4,56.8,709,39.02,1,Apollo,1000,4.0,2500,970.65,164.4,1.0,1.5499999999999545,0.009603469640644081,30.208674101610022
681,970.65,164.4,58.7,742,40.65,1,Apollo,1000,4.0,2500,971.04,178.8,1.0,0.38999999999998636,0.0023722627737225443,7.4906569343063065
682,971.04,178.8,56.6,772,40.77,1,Apollo,1000,4.0,2500,972.54,171.5,1.0,1.5,0.008389261744966443,26.973154362416107
683,972.54,171.5,56.2,743,41.08,1,Apollo,1000,4.0,2500,973.14,168.8,1.0,0.6000000000000227,0.0034985422740526104,11.146355685131617
684,973.14,168.8,57.6,735,39.58,1,Apollo,1000,4.0,2500,974.64,168.0,1.0,1.5,0.008886255924170616,28.21563981042654
685,974.64,168.0,55.0,733,38.49,1,Apollo,1000,4.0,2500,975.0,171.1,1.0,0.36000000000001364,0.002142857142857224,6.797142857143115
686,975.0,171.1,57.4,747,39.96,1,Apollo,1000,4.0,2500,976.55,172.4,1.0,1.5499999999999545,0.009059029807130067,28.847574517824988
687,976.55,172.4,56.7,824,40.28,1,Apollo,1000,4.0,2500,977.05,169.7,1.0,0.5,0.002900232018561485,9.250580046403712
688,977.05,169.7,59.1,754,41.83,1,Apollo,1000,4.0,2500,978.51,157.4,1.0,1.4600000000000364,0.008603417796110999,27.348544490277643
689,978.51,157.4,56.3,676,39.18,1,Apollo,1000,4.0,2500,979.05,175.3,1.0,0.5399999999999636,0.0034307496823377612,10.736874205844257
690,979.05,175.3,57.6,723,38.06,1,Apollo,1000,4.0,2500,980.6,295.9,1.0,1.5500000000000682,0.008841985168283332,28.304962920708604
691,980.6,295.9,68.4,781,28.24,1,Apollo,1000,4.0,2500,981.02,323.5,1.0,0.4199999999999591,0.0014193984454206122,5.228496113551367
692,981.02,323.5,53.4,834,42.91,1,Apollo,1000,4.0,2500,982.58,258.5,1.0,1.5600000000000591,0.004822256568779162,18.29564142194814
693,982.58,258.5,57.7,812,40.4,1,Apollo,1000,4.0,2500,983.09,281.2,1.0,0.5099999999999909,0.0019729206963249165,6.972301740812255
694,983.09,281.2,57.9,785,40.46,1,Apollo,1000,4.0,2500,985.07,252.6,1.0,1.9800000000000182,0.007041251778093948,25.523129445234943
695,985.07,252.6,54.6,692,40.51,1,Apollo,1000,4.0,2500,986.6,293.1,1.0,1.5299999999999727,0.006057007125890628,21.26251781472646
696,986.6,293.1,80.7,445,14.9,1,Apollo,1000,4.0,2500,987.0,446.2,1.0,0.39999999999997726,0.001364721937905074,5.011804844762594
697,987.0,446.2,80.2,473,13.48,1,Apollo,1000,4.0,2500,988.59,26.3,1.0,1.5900000000000318,0.0035634244733304165,15.268561183326169
698,988.59,26.3,92.0,253,5.96,1,Apollo,1000,4.0,2500,989.05,26.5,1.0,0.4599999999999227,0.017490494296575006,45.566235741437204
699,989.05,26.5,91.1,357,7.06,1,Apollo,1000,4.0,2500,990.67,333.5,1.0,1.6200000000000045,0.061132075471698286,159.31018867924573
700,990.67,333.5,91.8,320,5.88,1,Apollo,1000,4.0,2500,991.06,367.9,1.0,0.38999999999998636,0.001169415292353782,4.483538230884401
701,991.06,367.9,79.7,432,12.97,1,Apollo,1000,4.0,2500,992.64,443.1,1.0,1.580000000000041,0.0042946452840446885,17.056613210111884
702,992.64,443.1,69.8,766,28.45,1,Apollo,1000,4.0,2500,993.03,477.0,1.0,0.38999999999998636,0.0008801624915368683,3.760406228842116
703,993.03,477.0,68.7,699,27.95,1,Apollo,1000,4.0,2500,994.57,443.3,1.0,1.5400000000000773,0.003228511530398485,14.231278825996522
704,994.57,443.3,63.2,750,35.54,1,Apollo,1000,4.0,2500,995.15,479.8,1.0,0.5799999999999272,0.00130836905030437,5.5909226257606335
705,995.15,479.8,60.6,747,39.86,1,Apollo,1000,4.0,2500,996.66,459.7,1.0,1.509999999999991,0.0031471446436014813,13.907861609003668
706,996.66,459.7,58.3,709,38.73,1,Apollo,1000,4.0,2500,997.04,434.7,1.0,0.37999999999999545,0.0008266260604742125,3.586565151185513
707,997.04,434.7,60.1,911,39.41,1,Apollo,1000,4.0,2500,998.78,438.9,1.0,1.740000000000009,0.004002760524499676,16.966901311249224
708,998.78,438.9,57.7,836,39.1,1,Apollo,1000,4.0,2500,999.16,436.4,1.0,0.37999999999999545,0.0008658008658008554,3.68450216450212
709,999.16,436.4,59.5,891,38.64,1,Apollo,1000,4.0,2500,1000.56,429.6,1.0,1.3999999999999773,0.003208065994500406,13.620164986250924
710,1000.56,429.6,57.9,786,37.37,1,Apollo,1000,4.0,2500,1001.14,425.4,1.0,0.5800000000000409,0.0013500931098697415,5.695232774674517
711,1001.14,425.4,56.2,863,38.87,1,Apollo,1000,4.0,2500,1002.69,463.3,1.0,1.5500000000000682,0.0036436295251529582,15.30907381288267
712,1002.69,463.3,61.3,897,36.82,1,Apollo,1000,4.0,2500,1003.08,437.3,1.0,0.38999999999998636,0.0008417871789337067,3.664467947334212
713,1003.08,437.3,61.2,866,36.3,1,Apollo,1000,4.0,2500,1004.51,448.3,1.0,1.42999999999995,0.0032700663160300705,13.895165790074977
714,1004.51,448.3,59.9,791,36.83,1,Apollo,1000,4.0,2500,1005.09,444.2,1.0,0.5800000000000409,0.001293776488958378,5.554441222396109
715,1005.09,444.2,59.2,906,38.58,1,Apollo,1000,4.0,2500,1006.66,443.1,1.0,1.5699999999999363,0.0035344439441691504,15.116109860422622
716,1006.66,443.1,59.3,877,38.12,1,Apollo,1000,4.0,2500,1007.09,460.1,1.0,0.43000000000006366,0.0009704355675921092,4.146088918980528
717,1007.09,460.1,60.4,994,36.24,1,Apollo,1000,4.0,2500,1008.55,199.2,1.0,1.4599999999999227,0.0031732232123449743,13.773058030862126
718,1008.55,199.2,84.8,488,19.14,1,Apollo,1000,4.0,2500,1009.24,306.5,1.0,0.6900000000000546,0.003463855421687021,11.419638554217771
719,1009.24,306.5,83.1,526,22.12,1,Apollo,1000,4.0,2500,1010.53,339.2,1.0,1.2899999999999636,0.004208809135399554,15.68202283849874
720,1010.53,339.2,80.0,650,26.73,1,Apollo,1000,4.0,2500,1011.0,367.8,1.0,0.4700000000000273,0.0013856132075472504,5.344033018868235
721,1011.0,367.8,79.8,662,25.58,1,Apollo,1000,4.0,2500,1012.56,237.4,1.0,1.5599999999999454,0.004241435562805725,16.843588907014095
722,1012.56,237.4,64.9,537,40.31,1,Apollo,1000,4.0,2500,1013.01,214.5,1.0,0.4500000000000455,0.0018955349620894924,6.538837405223913
723,1013.01,214.5,64.5,572,40.54,1,Apollo,1000,4.0,2500,1014.59,206.9,1.0,1.580000000000041,0.007365967365967557,24.734918414919054
724,1014.59,206.9,65.4,567,40.24,1,Apollo,1000,4.0,2500,1015.01,199.8,1.0,0.4199999999999591,0.0020299661672303483,6.754915418075707
725,1015.01,199.8,65.0,587,38.53,1,Apollo,1000,4.0,2500,1016.57,190.2,1.0,1.5600000000000591,0.007807807807808103,25.759519519520495
726,1016.57,190.2,64.7,580,40.0,1,Apollo,1000,4.0,2500,1017.07,187.3,1.0,0.5,0.0026288117770767614,8.572029442691903
727,1017.07,187.3,65.0,574,38.31,1,Apollo,1000,4.0,2500,1018.56,186.0,1.0,1.4899999999998954,0.007955152162305901,25.847880405764336
728,1018.56,186.0,65.6,702,39.51,1,Apollo,1000,4.0,2500,1019.06,194.4,1.0,0.5,0.002688172043010753,8.720430107526882
729,1019.06,194.4,64.5,536,41.41,1,Apollo,1000,4.0,2500,1020.53,189.7,1.0,1.4700000000000273,0.007561728395061868,24.78432098765478
730,1020.53,189.7,65.1,561,39.17,1,Apollo,1000,4.0,2500,1021.04,186.5,1.0,0.5099999999999909,0.0026884554559830835,8.761138639957672
731,1021.04,186.5,64.1,507,41.31,1,Apollo,1000,4.0,2500,1022.55,180.5,1.0,1.509999999999991,0.008096514745308262,26.28128686327062
732,1022.55,180.5,66.1,657,38.37,1,Apollo,1000,4.0,2500,1023.03,197.4,1.0,0.4800000000000182,0.0026592797783934526,8.568199445983705
733,1023.03,197.4,64.0,654,39.81,1,Apollo,1000,4.0,2500,1024.59,174.9,1.0,1.5599999999999454,0.007902735562309754,25.996838905774165
734,1024.59,174.9,62.6,669,38.41,1,Apollo,1000,4.0,2500,1025.04,173.7,1.0,0.4500000000000455,0.0025728987993141536,8.232246998285566
735,1025.04,173.7,62.7,711,40.88,1,Apollo,1000,4.0,2500,1026.56,173.4,1.0,1.5199999999999818,0.008750719631548543,27.956799078871285
736,1026.56,173.4,64.7,659,40.91,1,Apollo,1000,4.0,2500,1027.0,170.4,1.0,0.44000000000005457,0.002537485582468596,8.103713956171708
737,1027.0,170.4,65.0,590,37.77,1,Apollo,1000,4.0,2500,1028.51,239.4,1.0,1.509999999999991,0.008861502347417786,28.19375586854443
738,1028.51,239.4,63.4,648,38.88,1,Apollo,1000,4.0,2500,1029.07,257.9,1.0,0.5599999999999454,0.0023391812865494795,8.087953216373482
739,1029.07,257.9,64.0,738,39.8,1,Apollo,1000,4.0,2500,1030.66,233.0,1.0,1.5900000000001455,0.006165180302443373,21.77295075610901
740,1030.66,233.0,64.8,691,38.44,1,Apollo,1000,4.0,2500,1031.01,219.8,1.0,0.34999999999990905,0.0015021459227463909,5.155364806865613
741,1031.01,219.8,62.4,569,40.4,1,Apollo,1000,4.0,2500,1032.54,254.2,1.0,1.5299999999999727,0.006960873521382951,23.522183803457267
742,1032.54,254.2,72.9,707,29.78,1,Apollo,1000,4.0,2500,1033.03,326.7,1.0,0.4900000000000091,0.0019276160503540877,6.779040125885255
743,1033.03,326.7,74.3,636,29.57,1,Apollo,1000,4.0,2500,1034.55,363.6,1.0,1.5199999999999818,0.004652586470768233,17.71146617692051
744,1034.55,363.6,81.5,632,23.19,1,Apollo,1000,4.0,2500,1035.01,347.5,1.0,0.4600000000000364,0.001265126512651365,5.002816281628558
745,1035.01,347.5,81.5,432,24.01,1,Apollo,1000,4.0,2500,1036.74,357.5,1.0,1.7300000000000182,0.0049784172661871025,19.36604316546783
746,1036.74,357.5,87.1,415,17.64,1,Apollo,1000,4.0,2500,1037.08,381.6,1.0,0.33999999999991815,0.0009510489510487221,3.7376223776214776
747,1037.08,381.6,81.8,486,18.69,1,Apollo,1000,4.0,2500,1038.61,385.8,1.0,1.5299999999999727,0.004009433962264079,16.143584905660088
748,1038.61,385.8,86.3,355,16.94,1,Apollo,1000,4.0,2500,1039.14,389.7,1.0,0.5300000000002001,0.0013737687921207883,5.554421980302771
749,1039.14,389.7,83.1,366,20.15,1,Apollo,1000,4.0,2500,1040.58,395.1,1.0,1.4399999999998272,0.003695150115472998,14.997875288681803
750,1040.58,395.1,79.7,501,23.5,1,Apollo,1000,4.0,2500,1041.1,395.1,1.0,0.5199999999999818,0.001316122500632705,5.37030625158169
751,1041.1,395.1,80.0,598,24.21,1,Apollo,1000,4.0,2500,1042.58,416.6,1.0,1.4800000000000182,0.003745887117185569,15.284717792963995
752,1042.58,416.6,74.0,631,28.67,1,Apollo,1000,4.0,2500,1043.14,420.6,1.0,0.5600000000001728,0.0013442150744123207,5.600537686031493
753,1043.14,420.6,72.6,576,30.37,1,Apollo,1000,4.0,2500,1044.52,421.3,1.0,1.3799999999998818,0.003281027104136666,13.722567760341192
754,1044.52,421.3,76.7,690,27.83,1,Apollo,1000,4.0,2500,1045.09,439.3,1.0,0.5699999999999363,0.001352955138855771,5.662387847139173
755,1045.09,439.3,70.4,694,30.91,1,Apollo,1000,4.0,2500,1046.51,363.0,1.0,1.4200000000000728,0.003232415206009726,13.761038015024607
756,1046.51,363.0,58.7,616,41.08,1,Apollo,1000,4.0,2500,1047.11,234.0,1.0,0.599999999999909,0.0016528925619832204,6.532231404957687
757,1047.11,234.0,66.9,769,40.72,1,Apollo,1000,4.0,2500,1048.6,163.4,1.0,1.490000000000009,0.006367521367521407,21.878803418803553
758,1048.6,163.4,62.2,642,39.7,1,Apollo,1000,4.0,2500,1049.05,168.6,1.0,0.4500000000000455,0.0027539779681765328,8.684944920441513
759,1049.05,168.6,62.2,651,40.13,1,Apollo,1000,4.0,2500,1050.62,169.3,1.0,1.5699999999999363,0.009311981020165696,29.559952550413986
760,1050.62,169.3,61.5,590,39.78,1,Apollo,1000,4.0,2500,1051.04,163.1,1.0,0.42000000000007276,0.0024808033077381732,7.882008269345724
761,1051.04,163.1,62.8,608,39.34,1,Apollo,1000,4.0,2500,1052.54,162.2,1.0,1.5,0.009196811771919068,28.992029429797668
762,1052.54,162.2,61.6,599,40.05,1,Apollo,1000,4.0,2500,1053.05,165.7,1.0,0.5099999999999909,0.0031442663378544447,9.900665844636075
763,1053.05,165.7,62.2,599,40.39,1,Apollo,1000,4.0,2500,1054.55,164.4,1.0,1.5,0.009052504526252263,28.63126131563066
764,1054.55,164.4,62.3,691,40.45,1,Apollo,1000,4.0,2500,1055.05,160.7,1.0,0.5,0.003041362530413625,9.603406326034062
765,1055.05,160.7,64.3,625,38.95,1,Apollo,1000,4.0,2500,1056.54,163.1,1.0,1.490000000000009,0.009271935283136336,29.139838207840874
766,1056.54,163.1,62.9,656,39.72,1,Apollo,1000,4.0,2500,1057.12,156.4,1.0,0.5799999999999272,0.00355610055180826,11.21025137952036
767,1057.12,156.4,62.6,635,39.12,1,Apollo,1000,4.0,2500,1058.51,170.9,1.0,1.3900000000001,0.008887468030691176,27.77867007672834
768,1058.51,170.9,60.8,688,41.74,1,Apollo,1000,4.0,2500,1059.04,173.9,1.0,0.5299999999999727,0.0031012287887652,9.873071971912891
769,1059.04,173.9,60.5,594,41.43,1,Apollo,1000,4.0,2500,1060.52,177.1,1.0,1.4800000000000182,0.008510638297872445,27.196595744681183
770,1060.52,177.1,60.7,761,41.95,1,Apollo,1000,4.0,2500,1061.01,175.1,1.0,0.4900000000000091,0.0027667984189723837,8.876996047430996
771,1061.01,175.1,61.3,630,40.45,1,Apollo,1000,4.0,2500,1062.53,183.1,1.0,1.5199999999999818,0.00868075385493993,27.781884637349755
772,1062.53,183.1,60.5,696,41.52,1,Apollo,1000,4.0,2500,1063.03,181.7,1.0,0.5,0.002730748225013654,8.826870562534134
773,1063.03,181.7,60.2,696,41.73,1,Apollo,1000,4.0,2500,1064.53,178.5,1.0,1.5,0.00825536598789213,26.638414969730324
774,1064.53,178.5,59.3,597,42.32,1,Apollo,1000,4.0,2500,1065.04,185.5,1.0,0.5099999999999909,0.002857142857142806,9.182857142856978
775,1065.04,185.5,60.3,626,42.17,1,Apollo,1000,4.0,2500,1066.54,179.9,1.0,1.5,0.008086253369272238,26.215633423180595
776,1066.54,179.9,58.6,611,42.02,1,Apollo,1000,4.0,2500,1068.55,180.1,1.0,2.009999999999991,0.011172873818788166,35.97218454697038
777,1068.55,180.1,59.8,694,41.2,1,Apollo,1000,4.0,2500,1069.05,182.7,1.0,0.5,0.00277623542476402,8.940588561910051
778,1069.05,182.7,59.2,645,41.79,1,Apollo,1000,4.0,2500,1070.57,184.0,1.0,1.5199999999999818,0.008319649698959944,26.879124247399787
779,1070.57,184.0,60.0,698,42.39,1,Apollo,1000,4.0,2500,1071.05,186.1,1.0,0.4800000000000182,0.0026086956521740117,8.441739130435103
780,1071.05,186.1,58.4,657,41.69,1,Apollo,1000,4.0,2500,1072.58,176.0,1.0,1.5299999999999727,0.00822138635142382,26.67346587855944
781,1072.58,176.0,59.6,596,41.89,1,Apollo,1000,4.0,2500,1073.06,179.9,1.0,0.4800000000000182,0.0027272727272728307,8.738181818182149
782,1073.06,179.9,58.9,651,42.28,1,Apollo,1000,4.0,2500,1074.5,181.5,1.0,1.4400000000000546,0.008004446914953054,25.771117287382854
783,1074.5,181.5,59.0,744,42.55,1,Apollo,1000,4.0,2500,1075.07,177.8,1.0,0.5699999999999363,0.0031404958677682445,10.131239669420356
784,1075.07,177.8,59.5,614,41.62,1,Apollo,1000,4.0,2500,1076.52,180.3,1.0,1.4500000000000455,0.008155230596175733,26.188076490439514
785,1076.52,180.3,58.9,718,41.34,1,Apollo,1000,4.0,2500,1077.07,180.3,1.0,0.5499999999999545,0.003050471436494479,9.826178591236015
786,1077.07,180.3,59.0,703,41.48,1,Apollo,1000,4.0,2500,1078.61,179.4,1.0,1.5399999999999636,0.008541320022185044,27.513300055462462
787,1078.61,179.4,57.6,707,43.04,1,Apollo,1000,4.0,2500,1079.1,181.8,1.0,0.4900000000000091,0.002731326644370173,8.78831661092547
788,1079.1,181.8,59.3,733,41.89,1,Apollo,1000,4.0,2500,1081.03,49.5,1.0,1.9300000000000637,0.010616061606160966,34.26015401540267
789,1081.03,49.5,74.7,464,24.85,1,Apollo,1000,4.0,2500,1084.57,228.9,1.0,3.5399999999999636,0.07151515151515078,192.94787878787682
790,1084.57,228.9,58.3,733,42.14,1,Apollo,1000,4.0,2500,1086.53,220.3,1.0,1.9600000000000364,0.00856269113149863,29.24672782874672
791,1086.53,220.3,86.4,198,15.52,1,Apollo,1000,4.0,2500,1087.09,0.0,1.0,0.5599999999999454,0.0025419881979116907,8.594970494779009
792,1087.09,0.0,108.1,-23,11.82,1,Apollo,1000,4.0,2500,1088.52,101.8,1.0,1.4300000000000637,0.0,5.720000000000255
793,1088.52,101.8,81.7,220,19.92,1,Apollo,1000,4.0,2500,1089.0,107.0,1.0,0.4800000000000182,0.004715127701375424,13.707819253438634
794,1089.0,107.0,81.5,236,19.85,1,Apollo,1000,4.0,2500,1090.53,115.1,1.0,1.5299999999999727,0.014299065420560494,41.86766355140113
795,1090.53,115.1,80.9,289,20.18,1,Apollo,1000,4.0,2500,1091.01,108.3,1.0,0.4800000000000182,0.004170286707211279,12.34571676802827
796,1091.01,108.3,80.9,260,19.88,1,Apollo,1000,4.0,2500,1092.53,106.3,1.0,1.5199999999999818,0.014035087719298078,41.167719298245125
797,1092.53,106.3,80.1,229,20.91,1,Apollo,1000,4.0,2500,1093.0,63.8,1.0,0.4700000000000273,0.004421448730009664,12.93362182502427
798,1093.0,63.8,101.5,32,1.01,1,Apollo,1000,4.0,2500,1094.5,49.4,1.0,1.5,0.023510971786833857,64.77742946708464
799,1094.5,49.4,92.6,142,21.63,1,Apollo,1000,4.0,2500,1095.04,51.8,1.0,0.5399999999999636,0.01093117408906809,29.487935222670078
800,1095.04,51.8,89.1,159,24.42,1,Apollo,1000,4.0,2500,1096.52,76.2,1.0,1.4800000000000182,0.028571428571428924,77.34857142857238
801,1096.52,76.2,89.2,214,24.73,1,Apollo,1000,4.0,2500,1097.0,79.8,1.0,0.4800000000000182,0.006299212598425434,17.66803149606366
802,1097.0,79.8,88.1,196,25.18,1,Apollo,1000,4.0,2500,1098.51,129.1,1.0,1.509999999999991,0.018922305764410913,53.34576441102725
803,1098.51,129.1,90.3,248,23.99,1,Apollo,1000,4.0,2500,1099.0,218.3,1.0,0.4900000000000091,0.003795507358636786,11.448768396592001
804,1099.0,218.3,90.0,319,24.06,1,Apollo,1000,4.0,2500,1100.59,229.6,1.0,1.5899999999999181,0.0072835547411814845,24.568886852953383
805,1100.59,229.6,89.0,288,24.91,1,Apollo,1000,4.0,2500,1101.01,222.7,1.0,0.42000000000007276,0.0018292682926832437,6.2531707317084
806,1101.01,222.7,88.8,287,24.55,1,Apollo,1000,4.0,2500,1102.56,220.8,1.0,1.5499999999999545,0.006960035922765849,23.60008980691444
807,1102.56,220.8,88.6,221,24.88,1,Apollo,1000,4.0,2500,1103.08,195.5,1.0,0.5199999999999818,0.0023550724637680337,7.967681159420011
808,1103.08,195.5,88.1,227,24.89,1,Apollo,1000,4.0,2500,1104.51,197.7,1.0,1.4300000000000637,0.007314578005115415,24.00644501278879
809,1104.51,197.7,88.7,241,25.79,1,Apollo,1000,4.0,2500,1105.17,196.8,1.0,0.6600000000000819,0.00333839150227659,10.985978755691804
810,1105.17,196.8,89.0,272,23.18,1,Apollo,1000,4.0,2500,1106.51,214.5,1.0,1.3399999999999181,0.006808943089430478,22.38235772357587
811,1106.51,214.5,88.5,219,24.55,1,Apollo,1000,4.0,2500,1107.07,204.5,1.0,0.5599999999999454,0.002610722610722356,8.766806526805672
812,1107.07,204.5,88.4,213,25.16,1,Apollo,1000,4.0,2500,1108.5,239.8,1.0,1.4300000000000637,0.006992665036675128,23.201662591688073
813,1108.5,239.8,84.8,268,28.23,1,Apollo,1000,4.0,2500,1109.04,239.0,1.0,0.5399999999999636,0.0022518765638030176,7.789691409507398
814,1109.04,239.0,85.6,286,27.68,1,Apollo,1000,4.0,2500,1110.67,266.6,1.0,1.6300000000001091,0.006820083682008825,23.570209205022497
815,1110.67,266.6,83.7,282,29.01,1,Apollo,1000,4.0,2500,1111.03,290.7,1.0,0.35999999999989996,0.0013503375843957237,4.815843960988909
816,1111.03,290.7,82.7,252,29.32,1,Apollo,1000,4.0,2500,1112.53,264.2,1.0,1.5,0.005159958720330238,18.899896800825594
817,1112.53,264.2,83.1,301,30.16,1,Apollo,1000,4.0,2500,1113.21,262.6,1.0,0.6800000000000637,0.0025738077214234054,9.154519303558768
818,1113.21,262.6,83.1,226,29.72,1,Apollo,1000,4.0,2500,1114.71,262.9,1.0,1.5,0.005712109672505712,20.28027418126428
819,1114.71,262.9,83.6,227,29.19,1,Apollo,1000,4.0,2500,1115.08,275.4,1.0,0.36999999999989086,0.001407379231646599,4.998448079116061
820,1115.08,275.4,82.5,228,29.71,1,Apollo,1000,4.0,2500,1116.57,249.6,1.0,1.490000000000009,0.005410312273057404,19.485780682643547
821,1116.57,249.6,82.6,276,29.32,1,Apollo,1000,4.0,2500,1117.01,256.6,1.0,0.44000000000005457,0.0017628205128207316,6.167051282052047
822,1117.01,256.6,82.5,253,29.42,1,Apollo,1000,4.0,2500,1118.56,271.6,1.0,1.5499999999999545,0.006040530007794054,21.301325019484953
823,1118.56,271.6,82.5,270,29.35,1,Apollo,1000,4.0,2500,1119.05,263.9,1.0,0.4900000000000091,0.0018041237113402397,6.470309278350635
824,1119.05,263.9,82.0,358,29.5,1,Apollo,1000,4.0,2500,1120.51,270.7,1.0,1.4600000000000364,0.0055323986358470495,19.67099658961777
825,1120.51,270.7,82.5,396,29.42,1,Apollo,1000,4.0,2500,1125.05,263.6,1.0,4.539999999999964,0.016771333579608288,60.08833394902057
826,1125.05,263.6,81.5,347,30.21,1,Apollo,1000,4.0,2500,1131.04,241.7,1.0,5.990000000000009,0.022723823975720824,80.7695599393021
827,1131.04,241.7,81.6,325,30.19,1,Apollo,1000,4.0,2500,1145.12,314.2,1.0,14.079999999999927,0.05825403392635469,201.95508481588644
828,1145.12,314.2,93.5,227,17.35,1,Apollo,1000,4.0,2500,1153.01,286.3,1.0,7.8900000000001,0.025111394016550288,94.33848504137612
829,1153.01,286.3,81.5,416,28.61,1,Apollo,1000,4.0,2500,1155.04,302.6,1.0,2.0299999999999727,0.007090464547677165,25.846161369192803
830,1155.04,302.6,79.3,377,31.41,1,Apollo,1000,4.0,2500,1161.1,294.6,1.0,6.059999999999945,0.020026437541308475,74.30609385327097
831,1161.1,294.6,79.6,371,30.03,1,Apollo,1000,4.0,2500,1168.75,265.7,1.0,7.650000000000091,0.0259674134419555,95.51853360488911
832,1168.75,265.7,82.6,253,27.6,1,Apollo,1000,4.0,2500,1175.09,362.8,1.0,6.339999999999918,0.023861497929995926,85.01374482498949
833,1175.09,362.8,87.9,291,20.75,1,Apollo,1000,4.0,2500,1181.07,260.4,1.0,5.980000000000018,0.016482910694597626,65.12727673649414
834,1181.07,260.4,76.1,406,31.13,1,Apollo,1000,4.0,2500,1184.58,256.8,1.0,3.509999999999991,0.013479262672811024,47.73815668202752
835,1184.58,256.8,78.5,351,30.28,1,Apollo,1000,4.0,2500,1187.08,262.2,1.0,2.5,0.009735202492211837,34.338006230529594
836,1187.08,262.2,77.6,370,30.18,1,Apollo,1000,4.0,2500,1188.64,110.4,1.0,1.5600000000001728,0.005949656750572741,21.114141876432544
837,1188.64,110.4,110.5,54,30.59,1,Apollo,1000,4.0,2500,1190.55,267.5,1.0,1.9099999999998545,0.01730072463767984,50.89181159419902
838,1190.55,267.5,84.2,390,30.15,1,Apollo,1000,4.0,2500,1192.62,327.7,1.0,2.0699999999999363,0.007738317757009108,27.625794392522515
839,1192.62,327.7,83.9,315,29.3,1,Apollo,1000,4.0,2500,1193.07,344.5,1.0,0.4500000000000455,0.0013732072017090188,5.233018004272729
840,1193.07,344.5,84.0,357,29.72,1,Apollo,1000,4.0,2500,1195.05,331.1,1.0,1.9800000000000182,0.005747460087082781,22.288650217707026
841,1195.05,331.1,83.6,354,29.67,1,Apollo,1000,4.0,2500,1198.59,317.1,1.0,3.5399999999999636,0.010691633947447791,40.889084868619335
842,1198.59,317.1,83.1,389,31.38,1,Apollo,1000,4.0,2500,1203.04,278.0,1.0,4.4500000000000455,0.014033427940712852,52.88356985178231
843,1203.04,278.0,84.3,274,28.56,1,Apollo,1000,4.0,2500,1206.5,196.6,1.0,3.4600000000000364,0.012446043165467756,44.955107913669536
844,1206.5,196.6,81.3,257,31.33,1,Apollo,1000,4.0,2500,1209.03,260.4,1.0,2.5299999999999727,0.012868769074262324,42.2919226856557
845,1209.03,260.4,87.4,305,23.29,1,Apollo,1000,4.0,2500,1214.61,349.2,1.0,5.579999999999927,0.02142857142857115,75.89142857142758
846,1214.61,349.2,80.7,369,30.2,1,Apollo,1000,4.0,2500,1215.05,340.3,1.0,0.44000000000005457,0.001260022909507602,4.910057273769223
847,1215.05,340.3,80.7,388,30.84,1,Apollo,1000,4.0,2500,1216.78,364.6,1.0,1.7300000000000182,0.005083749632677103,19.62937408169283
848,1216.78,364.6,84.5,310,25.93,1,Apollo,1000,4.0,2500,1217.28,344.4,1.0,0.5,0.0013713658804168952,5.428414701042238
849,1217.28,344.4,80.6,343,29.77,1,Apollo,1000,4.0,2500,1218.53,348.6,1.0,1.25,0.003629500580720093,14.073751451800232
850,1218.53,348.6,81.3,348,29.13,1,Apollo,1000,4.0,2500,1219.13,358.1,1.0,0.6000000000001364,0.0017211703958695825,6.702925989674502
851,1219.13,358.1,78.8,410,30.68,1,Apollo,1000,4.0,2500,1220.51,331.7,1.0,1.3799999999998818,0.0038536721586145814,15.154180396535981
852,1220.51,331.7,80.7,420,29.12,1,Apollo,1000,4.0,2500,1221.06,266.2,1.0,0.5499999999999545,0.0016581248115765889,6.34531202894129
853,1221.06,266.2,77.9,311,32.91,1,Apollo,1000,4.0,2500,1222.54,157.2,1.0,1.4800000000000182,0.005559729526671744,19.819323816679432
854,1222.54,157.2,79.7,218,30.85,1,Apollo,1000,4.0,2500,1223.02,153.3,1.0,0.4800000000000182,0.003053435114503933,9.553587786259905
855,1223.02,153.3,80.4,205,29.12,1,Apollo,1000,4.0,2500,1224.57,182.2,1.0,1.5499999999999545,0.01011089367253721,31.47723418134284
856,1224.57,182.2,79.0,202,30.54,1,Apollo,1000,4.0,2500,1225.07,201.7,1.0,0.5,0.0027442371020856204,8.86059275521405
857,1225.07,201.7,79.4,128,31.5,1,Apollo,1000,4.0,2500,1226.55,179.9,1.0,1.4800000000000182,0.007337630143777979,24.26407535944502
858,1226.55,179.9,79.4,229,30.42,1,Apollo,1000,4.0,2500,1227.05,184.0,1.0,0.5,0.0027793218454697055,8.948304613674264
859,1227.05,184.0,79.8,210,29.54,1,Apollo,1000,4.0,2500,1228.58,194.7,1.0,1.5299999999999727,0.008315217391304199,26.90804347826039
860,1228.58,194.7,79.4,187,30.45,1,Apollo,1000,4.0,2500,1229.12,196.4,1.0,0.5399999999999636,0.0027734976887517394,9.093744221879202
861,1229.12,196.4,80.4,154,29.68,1,Apollo,1000,4.0,2500,1230.51,176.4,1.0,1.3900000000001,0.007077393075356925,23.25348268839271
862,1230.51,176.4,80.2,158,28.85,1,Apollo,1000,4.0,2500,1231.13,179.4,1.0,0.6200000000001182,0.0035147392290256134,11.266848072564507
863,1231.13,179.4,78.4,197,31.19,1,Apollo,1000,4.0,2500,1232.57,182.7,1.0,1.4399999999998272,0.008026755852841846,25.826889632103924
864,1232.57,182.7,79.9,222,30.3,1,Apollo,1000,4.0,2500,1233.08,196.0,1.0,0.5099999999999909,0.0027914614121510176,9.018653530377508
865,1233.08,196.0,79.1,237,31.03,1,Apollo,1000,4.0,2500,1234.53,196.5,1.0,1.4500000000000455,0.007397959183673702,24.294897959184436
866,1234.53,196.5,79.5,226,29.29,1,Apollo,1000,4.0,2500,1235.02,205.7,1.0,0.4900000000000091,0.00249363867684483,8.194096692112112
867,1235.02,205.7,78.5,226,30.94,1,Apollo,1000,4.0,2500,1236.63,197.7,1.0,1.6100000000001273,0.007826932425863527,26.007331064659326
868,1236.63,197.7,79.0,211,30.04,1,Apollo,1000,4.0,2500,1237.01,178.2,1.0,0.37999999999988177,0.0019221041982796247,6.325260495698589
869,1237.01,178.2,78.7,207,31.23,1,Apollo,1000,4.0,2500,1238.53,235.1,1.0,1.5199999999999818,0.008529741863075094,27.404354657687662
870,1238.53,235.1,76.7,209,32.11,1,Apollo,1000,4.0,2500,1239.04,165.3,1.0,0.5099999999999909,0.002169289663972739,7.46322415993181
871,1239.04,165.3,78.0,212,31.41,1,Apollo,1000,4.0,2500,1240.55,130.6,1.0,1.509999999999991,0.009134906231094923,28.87726557773727
872,1240.55,130.6,78.2,199,30.6,1,Apollo,1000,4.0,2500,1241.02,133.2,1.0,0.4700000000000273,0.003598774885145692,10.87693721286434
873,1241.02,133.2,79.0,154,29.84,1,Apollo,1000,4.0,2500,1242.53,154.7,1.0,1.509999999999991,0.01133633633633627,34.38084084084064
874,1242.53,154.7,78.3,194,30.46,1,Apollo,1000,4.0,2500,1243.06,155.7,1.0,0.5299999999999727,0.003425985778926779,10.684964447316839
875,1243.06,155.7,78.8,158,30.83,1,Apollo,1000,4.0,2500,1244.54,149.7,1.0,1.4800000000000182,0.009505459216441994,29.683648041105055
876,1244.54,149.7,78.5,187,30.19,1,Apollo,1000,4.0,2500,1245.04,145.1,1.0,0.5,0.0033400133600534404,10.3500334001336
877,1245.04,145.1,78.2,208,30.2,1,Apollo,1000,4.0,2500,1246.5,145.0,1.0,1.4600000000000364,0.010062026188835537,30.99506547208899
878,1246.5,145.0,78.3,225,30.6,1,Apollo,1000,4.0,2500,1247.01,143.8,1.0,0.5099999999999909,0.0035172413793102823,10.83310344827567
879,1247.01,143.8,78.4,175,30.58,1,Apollo,1000,4.0,2500,1248.56,160.6,1.0,1.5499999999999545,0.010778859527120684,33.14714881780153
880,1248.56,160.6,77.8,165,30.17,1,Apollo,1000,4.0,2500,1249.05,163.4,1.0,0.4900000000000091,0.003051058530510642,9.58764632627664
881,1249.05,163.4,78.4,198,29.98,1,Apollo,1000,4.0,2500,1250.56,166.5,1.0,1.509999999999991,0.009241126070991375,29.1428151774784
882,1250.56,166.5,78.1,149,29.97,1,Apollo,1000,4.0,2500,1251.04,170.1,1.0,0.4800000000000182,0.002882882882882992,9.127207207207555
883,1251.04,170.1,77.8,228,30.45,1,Apollo,1000,4.0,2500,1252.54,178.5,1.0,1.5,0.008818342151675486,28.045855379188716
884,1252.54,178.5,77.8,234,30.32,1,Apollo,1000,4.0,2500,1253.06,165.9,1.0,0.5199999999999818,0.0029131652661063406,9.362913165265779
885,1253.06,165.9,77.7,244,31.06,1,Apollo,1000,4.0,2500,1254.58,161.0,1.0,1.5199999999999818,0.00916214587100652,28.985364677516227
886,1254.58,161.0,77.0,122,26.08,1,Apollo,1000,4.0,2500,1255.02,169.7,1.0,0.44000000000005457,0.002732919254658724,8.592298136647027
887,1255.02,169.7,77.8,220,30.86,1,Apollo,1000,4.0,2500,1256.63,179.1,1.0,1.6100000000001273,0.009487330583383191,30.158326458458486
888,1256.63,179.1,77.4,225,30.46,1,Apollo,1000,4.0,2500,1257.05,193.7,1.0,0.4199999999998454,0.0023450586264647986,7.542646566161378
889,1257.05,193.7,78.5,225,30.01,1,Apollo,1000,4.0,2500,1258.52,190.4,1.0,1.4700000000000273,0.0075890552400620925,24.85263810015534
890,1258.52,190.4,76.6,199,31.15,1,Apollo,1000,4.0,2500,1259.03,172.6,1.0,0.5099999999999909,0.0026785714285713805,8.736428571428416
891,1259.03,172.6,78.7,159,29.18,1,Apollo,1000,4.0,2500,1260.54,172.7,1.0,1.509999999999991,0.008748551564310493,27.911378910776197
892,1260.54,172.7,78.5,202,30.4,1,Apollo,1000,4.0,2500,1261.06,168.2,1.0,0.5199999999999818,0.0030110017371162813,9.60750434279063
893,1261.06,168.2,77.6,202,29.94,1,Apollo,1000,4.0,2500,1262.53,145.3,1.0,1.4700000000000273,0.00873959571938185,27.728989298454735
894,1262.53,145.3,76.9,179,31.28,1,Apollo,1000,4.0,2500,1263.02,141.8,1.0,0.4900000000000091,0.0033723331039229804,10.390832759807488
895,1263.02,141.8,77.1,176,29.94,1,Apollo,1000,4.0,2500,1264.52,179.8,1.0,1.5,0.010578279266572637,32.44569816643159
896,1264.52,179.8,76.9,160,30.49,1,Apollo,1000,4.0,2500,1265.04,168.0,1.0,0.5199999999999818,0.0028921023359287086,9.3102558398217
897,1265.04,168.0,77.4,189,30.22,1,Apollo,1000,4.0,2500,1266.52,164.5,1.0,1.4800000000000182,0.008809523809523918,27.94380952380987
898,1266.52,164.5,77.1,208,30.08,1,Apollo,1000,4.0,2500,1267.1,180.3,1.0,0.5799999999999272,0.0035258358662609564,11.1345896656521
899,1267.1,180.3,77.6,214,29.47,1,Apollo,1000,4.0,2500,1268.55,178.5,1.0,1.4500000000000455,0.008042151968940906,25.905379922352445
900,1268.55,178.5,76.4,230,31.18,1,Apollo,1000,4.0,2500,1269.04,182.2,1.0,0.4900000000000091,0.0027450980392157375,8.82274509803938
901,1269.04,182.2,77.2,178,29.4,1,Apollo,1000,4.0,2500,1270.6,173.8,1.0,1.5599999999999454,0.008562019758506836,27.64504939626687
902,1270.6,173.8,76.4,215,29.84,1,Apollo,1000,4.0,2500,1271.04,165.3,1.0,0.44000000000005457,0.0025316455696205668,8.089113924051635
903,1271.04,165.3,76.3,188,30.8,1,Apollo,1000,4.0,2500,1272.51,162.1,1.0,1.4700000000000273,0.008892921960072759,28.112304900182007
904,1272.51,162.1,77.6,172,30.01,1,Apollo,1000,4.0,2500,1273.0,158.7,1.0,0.4900000000000091,0.00302282541640968,9.517063541024235
905,1273.0,158.7,74.8,201,31.21,1,Apollo,1000,4.0,2500,1274.5,154.1,1.0,1.5,0.00945179584120983,29.629489603024574
906,1274.5,154.1,77.4,174,29.26,1,Apollo,1000,4.0,2500,1275.05,157.0,1.0,0.5499999999999545,0.0035691109669043126,11.1227774172606
907,1275.05,157.0,76.6,186,30.16,1,Apollo,1000,4.0,2500,1276.52,155.9,1.0,1.4700000000000273,0.009363057324840938,29.287643312102453
908,1276.52,155.9,76.6,163,30.43,1,Apollo,1000,4.0,2500,1277.0,157.4,1.0,0.4800000000000182,0.0030788967286723428,9.61724182168093
909,1277.0,157.4,75.7,194,29.81,1,Apollo,1000,4.0,2500,1278.5,163.3,1.0,1.5,0.009529860228716646,29.824650571791615
910,1278.5,163.3,74.9,210,30.96,1,Apollo,1000,4.0,2500,1279.0,159.9,1.0,0.5,0.003061849357011635,9.654623392529087
911,1279.0,159.9,77.4,212,29.22,1,Apollo,1000,4.0,2500,1280.54,174.1,1.0,1.5399999999999636,0.00963101938711672,30.237548467791655
912,1280.54,174.1,78.1,165,30.4,1,Apollo,1000,4.0,2500,1281.05,185.9,1.0,0.5099999999999909,0.002929350947731137,9.363377369327806
913,1281.05,185.9,76.7,195,29.65,1,Apollo,1000,4.0,2500,1282.56,211.0,1.0,1.509999999999991,0.008122646584184996,26.346616460462453
914,1282.56,211.0,80.9,247,30.91,1,Apollo,1000,4.0,2500,1283.01,219.9,1.0,0.4500000000000455,0.0021327014218011633,7.13175355450309
915,1283.01,219.9,96.2,2,9.76,1,Apollo,1000,4.0,2500,1284.63,158.7,1.0,1.6200000000001182,0.007366984993179255,24.89746248294861
916,1284.63,158.7,107.9,76,0.86,1,Apollo,1000,4.0,2500,1285.05,345.9,1.0,0.4199999999998454,0.0026465028355377785,8.296257088843827
917,1285.05,345.9,101.6,156,11.15,1,Apollo,1000,4.0,2500,1286.55,320.3,1.0,1.5,0.004336513443191674,16.841283607979186
918,1286.55,320.3,102.1,155,9.51,1,Apollo,1000,4.0,2500,1287.12,326.6,1.0,0.5699999999999363,0.001779581642210229,6.728954105525317
919,1287.12,326.6,103.5,125,11.72,1,Apollo,1000,4.0,2500,1288.62,382.1,1.0,1.5,0.004592774035517452,17.48193508879363
920,1288.62,382.1,83.5,407,28.45,1,Apollo,1000,4.0,2500,1289.12,344.8,1.0,0.5,0.0013085579691180318,5.271394922795079
921,1289.12,344.8,83.1,430,29.13,1,Apollo,1000,4.0,2500,1290.55,344.7,1.0,1.4300000000000637,0.004147331786543107,16.088329466358022
922,1290.55,344.7,85.3,381,26.47,1,Apollo,1000,4.0,2500,1291.07,395.1,1.0,0.5199999999999818,0.0015085581665215603,5.851395416303828
923,1291.07,395.1,83.2,403,29.25,1,Apollo,1000,4.0,2500,1292.51,390.4,1.0,1.4400000000000546,0.0036446469248292953,14.871617312073456
